participant_id,window_start_time,window_end_time,sleep_stage,BVP_mean,BVP_std,BVP_min,BVP_max,BVP_range,BVP_median,SDNN,median_nni,IBI_mean,x_std,y_std,z_std,mag_mean,mag_std,mag_max,movement_density,burst_count,EDA_mean,EDA_std,EDA_trend,TEMP_mean,TEMP_std,TEMP_slope,HR_mean,HR_std,HR_range,HR_trend
S010,9151.0,9180.984375,W,-0.6980833333333333,18.61534178197441,-116.06,221.42,337.48,-0.455,30.07645044991105,625.0,635.6201171875,0.11178398687746927,0.37267799624996495,0.07880950133074055,64.7755194416677,0.17319852422659815,65.3834841531101,0.17708333333333334,66,0.13933917500000004,0.0011680615541892485,1.0821298508381762e-06,32.43866666666666,0.049915484126227185,-7.916668814200659e-05,103.20166666666667,3.8642326390745274,11.699999999999989,0.0066337865217519845
S010,9181.0,9210.984375,W,-0.007880208333333465,24.544280045550327,-176.8,210.36,387.16,0.055,19.972830371266394,609.375,619.2301432291666,9.54949818480517,3.64528805446154,16.138842538988474,64.86333323618237,3.264085092634503,117.05127081753534,0.021875,12,0.1346216083333333,0.00392618754709076,-3.8456006525609445e-06,32.462666666666664,0.06791825151525219,0.00011354169746682518,107.80733333333335,0.3268020127776989,1.0699999999999932,0.0004745834620723342
S010,9211.0,9240.984375,W,-0.03564583333333334,2.029793503347727,-6.19,4.82,11.010000000000002,0.15,31.129450875139987,625.0,629.1910807291666,0.11110243021644486,0.07198059875565234,0.19982631347136334,64.7985628218684,0.1090010108892409,65.73431371817918,0.0125,12,0.13292448333333334,0.001021830261371985,2.546137843461868e-07,32.598000000000006,0.028565713714171954,4.486112328047088e-05,102.46166666666667,2.9391711794691764,8.430000000000007,-0.004972536071108961
S010,9241.0,9270.984375,W,0.03974479166666667,2.2027159815294786,-6.16,6.68,12.84,0.24,25.503335520602505,640.625,633.7483723958334,0.10152910775842672,0.18742764807756854,0.23142589031552488,64.79441853049418,0.11177639204643612,65.73431371817918,0.010416666666666666,10,0.13337279999999999,0.0009633559103467365,-3.13022220329376e-07,32.63866666666666,0.014079141387960565,1.3402781413513614e-05,97.67033333333332,1.2999550846941679,4.260000000000005,-0.002328090909312855
S010,9271.0,9300.984375,W,-0.034229166666666665,38.104505304622215,-210.82,161.01,371.83,-0.155,9.944328473182695,625.0,625.1953125,24.35218982567185,25.197237550273854,22.434892272441196,64.83072597435448,6.396767645055348,107.2846680565308,0.059375,23,0.12487721666666665,0.007455380499101898,-2.7225562940962175e-06,32.620666666666665,0.02756003547812476,-4.201390028588764e-05,92.10666666666665,2.213412649181249,6.929999999999993,-0.003931528844273231
S010,9301.0,9330.984375,W,0.0701875,3.493021982325679,-13.13,24.87,38.0,0.545,48.52051542884173,625.0,614.2578125,1.0752825855973345,0.5691123692987957,0.6941088598879862,63.76279854288531,0.5988714214459121,77.78174593052023,0.025,16,0.12620066666666666,0.0011564145042135868,-1.4450351142130665e-07,32.60000000000001,0.015275252316518752,1.5486115311987762e-05,87.64333333333333,0.12324321031557446,0.45000000000000284,7.194446396062948e-05
S010,9331.0,9360.984375,W,0.010109375000000042,38.30215058336743,-393.4,187.71,581.11,0.16,26.125555343850017,593.75,608.7320963541666,15.598116317007284,16.225910429644102,10.90275309069215,64.67357776011981,8.004959798300147,108.47119433287347,0.09166666666666666,39,0.123745825,0.005768739453096172,-4.909787139156665e-06,32.635999999999996,0.016248076809270963,1.729167135733101e-05,90.50766666666668,2.7739210314803273,8.179999999999993,0.00481566102855388
S010,9361.0,9390.984375,W,-0.04660416666666672,26.65983759620107,-127.08,117.65,244.73000000000002,0.355,27.053067829489358,593.75,579.4759114583334,21.06962949625301,7.538120713340222,22.001769553794166,64.92231087026602,6.803170922288445,120.81804500984114,0.08125,35,0.10831218333333333,0.00677279690254001,-9.362524675164027e-06,32.63966666666666,0.012775845264489757,-7.812502119276068e-06,98.06899999999999,1.0341481196295514,3.299999999999997,0.0018298963297244846
S010,9391.0,9420.984375,W,0.013119791666666677,1.9096952217085905,-5.14,4.15,9.29,0.34,24.507037319853993,593.75,596.2646484375,0.3205203424598126,0.1821904480893551,0.20879116360612582,64.32176750886399,0.2136380170115567,65.30696746902278,0.04479166666666667,32,0.10495019166666666,0.0014909198743048603,1.941012896325112e-06,32.648333333333326,0.00897527467855572,5.729168220801871e-06,100.44100000000002,0.37951152815164985,1.2800000000000011,0.0005221181971891819
S010,9421.0,9450.984375,W,-0.02575520833333332,3.566517406213944,-11.44,23.25,34.69,0.095,20.026172890499844,593.75,604.7526041666666,0.6636356880012473,0.4159251213827102,0.4604107748491799,64.31188858813833,0.43029396178402385,65.5286197016235,0.01875,17,0.111855825,0.0014634270205155426,2.0123853115194537e-06,32.65299999999999,0.008999999999998209,-3.71527878561091e-06,100.68233333333333,0.2842262400897483,0.8199999999999932,-0.0003588542640121168
S010,9451.0,9480.984375,W,-0.020223958333333385,9.490875453662111,-67.9,46.96,114.86000000000001,0.14,28.953791520608906,625.0,600.2685546875,17.10942541849497,5.394779397553147,19.480866570211628,64.51306303733394,2.9004506904351537,87.80660567406076,0.06354166666666666,31,0.11622114166666667,0.0022091872423127064,1.315032691794893e-06,32.65099999999999,0.006999999999998608,1.70138935041995e-06,99.60233333333332,0.743539657464363,2.319999999999993,0.000684132130027161
S010,9481.0,9510.984375,W,0.02763541666666667,11.624135206740284,-42.44,67.07,109.50999999999999,0.29,22.10700511774525,625.0,625.5696614583334,7.307291592421001,5.029798250696377,3.576586277589521,64.39466726673677,2.885263293518656,85.42247947700886,0.04895833333333333,23,0.112826975,0.006220002757853755,-8.604189617021917e-06,32.65366666666666,0.0065743609744373654,1.8402782769848435e-06,98.50366666666667,1.9530838577888956,5.5,-0.003471007886015593
S010,9511.0,9540.984375,W,-0.2909010416666664,35.33442969904671,-104.22,164.71,268.93,-0.61,9.298677955281457,625.0,623.9908854166666,24.83948434728243,30.37562727975982,27.852236283146496,64.99737257515136,10.459041941160878,170.0676336049867,0.08125,35,0.11628514166666666,0.008134000527923754,-3.376839240679048e-06,32.657,0.013453624047073464,1.6840282345996292e-05,94.82233333333333,1.1204156470802353,3.3299999999999983,-0.0017835074282517975
S010,9541.0,9570.984375,W,0.3109010416666665,34.70108741497698,-313.65,220.35,534.0,-0.04,16.36783199007466,625.0,621.2076822916666,10.224886610940839,10.299413203012534,33.691077938215166,64.38678263069691,6.28022139742848,112.91589790636215,0.07083333333333333,39,0.11808896666666667,0.003914982034725347,-2.3770969989954945e-06,32.715,0.022323380867003986,4.1319455653059375e-06,89.72466666666666,1.5343440147357947,5.799999999999997,-0.0026056257068212095
S010,9571.0,9600.984375,W,-0.00902604166666668,1.7661407253732166,-5.05,4.7,9.75,0.38,32.14575503841021,593.75,598.8606770833334,0.4999305507323548,0.3621031712056969,0.24632718756429087,64.1312822030698,0.3906421937709388,65.30696746902278,0.09166666666666666,75,0.11576204999999999,0.0009234954777907707,-4.614714793488131e-08,32.67966666666666,0.01601735170231333,6.006946073933213e-06,86.08166666666666,0.23405246325462004,0.8999999999999915,0.0003001042480751543
S010,9601.0,9630.984375,W,-0.028989583333333346,2.276013171803895,-5.29,4.55,9.84,0.39,21.542274215660335,609.375,607.8450520833334,0.36699204313203054,0.4643497170476387,0.16372402253657084,64.37421070763746,0.2967812359768684,65.30696746902278,0.23645833333333333,149,0.11546314999999999,0.0009449636381893249,-8.840236773067695e-08,32.69633333333333,0.01797838208021644,8.298613362254356e-06,91.12833333333333,3.0548159609959415,10.439999999999998,0.005481355653579551
S010,9631.0,9660.984375,W,0.010119791666666654,2.571694082584466,-6.6,8.85,15.45,0.43,29.322361915449644,609.375,610.0179036458334,0.27794938275700487,0.48882920642649375,0.32465259209739195,64.41846945641666,0.3050976227034089,66.55073252789934,0.005208333333333333,4,0.11550584999999997,0.000949775093114157,-3.9975661885759104e-07,32.702666666666666,0.017307673314329218,-3.680556553970723e-06,98.36233333333332,0.28989289209790725,1.289999999999992,6.586807342341287e-05
S010,9661.0,9690.984375,W,-0.015239583333333353,2.788255828936762,-6.71,16.66,23.37,0.41,21.25527503419029,609.375,609.3505859375,0.13928372696486202,0.4999121016488799,0.4405535797121869,64.38616421836252,0.3095409171443011,64.69930447848725,0.36354166666666665,216,0.11583677499999999,0.0010167061888151376,5.134565194923284e-07,32.693666666666665,0.0160173517023122,-3.2291675426349907e-06,98.34266666666667,0.10776311469556228,0.28000000000000114,0.00014750004001194561
S010,9691.0,9720.984375,W,0.01229687499999999,2.520207743047234,-5.81,4.97,10.78,0.51,18.718507598513202,593.75,595.8740234375,0.06451609403000842,0.48789046862487484,0.4997872811395753,64.2950982125382,0.33808900218698,65.4446330878247,0.321875,211,0.1155805833333333,0.0009057144655218663,-1.665035173891926e-07,32.695,0.017078251276599815,2.5347229098093625e-06,98.81866666666669,0.3820971371552306,1.1300000000000097,0.0006772918503938418
S010,9721.0,9750.984375,W,0.03757291666666672,11.878242247947849,-67.35,87.36,154.70999999999998,0.62,18.489010224392516,609.375,605.0130208333334,4.0959578439874385,4.831601701299477,24.832866326705016,63.9647428136029,3.283356025416188,98.74208829065749,0.041666666666666664,15,0.11802484166666666,0.004965101279591102,6.056731026673993e-06,32.69933333333333,0.016519348924485196,1.1736114294735454e-05,99.90766666666667,0.20431484418797335,0.710000000000008,0.00035781259706288036
S010,9751.0,9780.984375,W,-0.057880208333333336,2.909016968880259,-12.06,12.4,24.46,0.37,20.04492000100051,609.375,602.2867838541666,0.26339134382131846,0.032258047015004204,0.26339134382131846,62.2503918712998,0.2544671614980913,63.26136261573884,0.075,68,0.129477325,0.0014972672115251661,2.0776900167344943e-06,32.833999999999996,0.06452906321960666,0.00011423614209964776,98.89466666666667,0.5792968918343073,1.8200000000000074,-0.0009374308098499389
S010,9781.0,9810.984375,W,-0.06245312499999998,16.55815766890833,-96.86,146.65,243.51,0.46499999999999997,20.55704011224391,625.0,607.0475260416666,12.647092837813119,10.518340257418627,11.260399514325512,62.75627360425277,2.368437946868737,77.52418977325722,0.08125,36,0.11375556666666667,0.011146041467514627,-1.59920442686752e-05,32.975,0.016278820596099523,1.711806019912519e-05,98.3,0.13195958977404024,0.5699999999999932,9.756947091186064e-05
S010,9811.0,9840.984375,W,0.07261979166666666,14.831654333624023,-90.75,77.99,168.74,0.37,18.171453396531355,609.375,609.5296223958334,1.9308350304804798,1.1187713374749801,2.628568176730865,62.66037126012186,1.4569369273790214,81.78630692236935,0.021875,10,0.11630654166666667,0.002476478887775387,3.6411075415330767e-06,32.95066666666666,0.016719914938645813,2.7083340680163925e-06,102.23766666666667,1.7898802256637785,5.159999999999997,0.0028617716096385627
S010,9841.0,9870.984375,W,-0.03664062499999998,4.959991916157687,-22.73,15.7,38.43,0.715,28.23506118962335,609.375,594.4091796875,0.5761311337997048,0.4309215234529368,1.7231946949190688,62.877038322994196,0.44829498701681114,67.01492371106603,0.165625,126,0.11923109166666666,0.001214844578508115,1.2286620086431248e-06,33.00433333333333,0.021398338460938214,2.8090285397754444e-05,102.66833333333332,0.41431134294017163,1.5300000000000011,-0.0007410071454554964
S010,9871.0,9900.984375,W,0.030088541666666687,4.417638962452346,-9.23,10.81,20.04,0.55,13.71795156091715,593.75,601.46484375,0.37893765978060295,0.41121432638251093,0.506201772394171,62.94405682780957,0.3635497088616022,67.4166151627327,0.15416666666666667,120,0.1208425,0.0010410970415864237,7.754489950762256e-07,33.04266666666667,0.01651934892448427,9.861113786109262e-06,99.46633333333332,1.336987866644853,3.799999999999997,-0.002119479741612345
S010,9901.0,9930.984375,W,-0.01699479166666665,5.535833249909738,-29.41,26.91,56.32,0.475,12.567589074338484,609.375,602.7913411458334,0.6220895777203902,0.5448583850159803,1.148366518025592,63.02236436198514,0.5316313495776734,66.6783323126786,0.0125,7,0.120693125,0.0015129723260440037,-1.3051524807813815e-06,33.05733333333333,0.013148721948877925,3.1250008477106047e-06,99.033,0.24937455096033045,0.7999999999999972,0.00044322928690030447
S010,9931.0,9960.984375,W,0.05163541666666667,4.758259149932076,-12.92,16.61,29.53,0.64,16.828118574085543,593.75,594.2464192708334,0.2530285309999645,0.4984306970103488,0.23870082026926975,63.058618676157124,0.3047988216453044,63.35613624582863,0.0,0,0.120159475,0.0009636795366588439,4.823653652249812e-07,33.068000000000005,0.016613247725838148,1.9791672035503687e-05,99.22933333333334,0.13313985962972275,0.4200000000000017,-0.00010131947192911025
S010,9961.0,9990.984375,W,-0.022786458333333363,4.564318529846482,-9.78,7.47,17.25,0.64,11.63406858771336,593.75,599.6907552083334,0.20684625513624577,0.47920176501889283,0.20712147536060943,62.98589134783895,0.2783722655502604,63.41135544995076,0.325,191,0.12173906666666667,0.0010824922304057821,4.964923221821611e-07,33.10266666666668,0.014126413400277173,1.1319447515040082e-05,99.40966666666667,0.034974593953643766,0.10999999999999943,2.878473003058026e-05
S010,9991.0,10020.984375,W,-0.1024010416666667,12.375374018573428,-115.12,82.29,197.41000000000003,0.38,16.44282225749702,609.375,605.1595052083334,3.4387306824753257,7.4792420347873865,9.828250805147826,63.005146038705526,2.63144243867451,81.95730595865142,0.04375,20,0.12394855,0.005937571206380041,4.590354543824473e-06,33.12533333333334,0.01586050300449358,2.131945022771503e-05,99.66666666666667,0.17879845885490264,0.4899999999999949,0.00021173616854822176
S010,10021.0,10050.984375,N1,0.11792187499999983,14.403240350993238,-110.93,140.04,250.97,0.63,12.775645607968794,609.375,607.8450520833334,0.21137108216357317,0.13303596396588907,0.08538490263051322,62.33902271966722,0.1920191574159721,63.41135544995076,0.05,37,0.13355430000000001,0.00120347175288828,1.074971211743489e-06,33.196999999999996,0.03247049943153583,5.288195878959463e-05,98.22433333333333,0.423782045658169,1.6500000000000057,-0.0006210765573666872
S010,10051.0,10080.984375,N1,-0.0040729166666666795,4.287514452708371,-13.8,17.81,31.61,0.63,21.26662756937194,593.75,599.4466145833334,0.336571188503347,0.2382571993782256,0.2228192933746986,62.36667562292441,0.2866125344894391,64.10148204214939,0.10729166666666666,68,0.13620152500000002,0.001378415285527192,1.8531057544232247e-06,33.28533333333334,0.01765093639316433,2.6319451584051156e-05,97.45500000000001,0.21752777600419837,0.7099999999999937,1.3368059181873759e-05
S010,10081.0,10110.984375,N1,-0.015171874999999998,4.581076471433941,-15.06,24.49,39.55,0.645,27.76398727041649,593.75,602.7913411458334,0.5220153254455274,0.5241053471684444,0.37666153895846005,62.35369024566595,0.47721003154823904,65.3834841531101,0.14166666666666666,113,0.1389869916666667,0.0012698588208657545,1.2802028212355777e-06,33.323,0.016563010998405996,2.378472867424256e-05,99.15166666666667,0.44739306605663304,1.6299999999999955,0.0006932293547171622
S010,10111.0,10140.984375,N1,0.019713541666666664,4.612470039562131,-12.89,19.26,32.150000000000006,0.635,16.19769555172968,593.75,604.19921875,0.3525145288574012,0.41197356981027583,0.495674650728681,62.379683732195794,0.3431702267986179,63.41135544995076,0.14166666666666666,113,0.14082295000000003,0.001131952758510702,1.2915641524425258e-06,33.35733333333334,0.018607047649268724,2.2013894860538067e-05,99.77033333333334,0.23908831469191832,0.7999999999999972,-0.0001642708778946622
S010,10141.0,10170.984375,W,-0.0008489583333333421,4.253860104621027,-14.66,14.97,29.630000000000003,0.62,15.758736795915267,593.75,596.5576171875,0.2699987139887069,0.4342088511176262,0.3903123748998999,62.45992563487607,0.29115806546395534,63.41135544995076,0.07916666666666666,68,0.143608775,0.0010785213370049771,1.1457023507222105e-06,33.39399999999999,0.014047538337136213,1.3055559097101574e-05,99.32533333333332,0.05327496806401948,0.18000000000000682,-4.229167813901905e-05
S010,10171.0,10200.984375,N1,-0.0192239583333333,12.882029641287485,-61.31,85.23,146.54000000000002,0.435,41.3085520658691,609.375,592.4967447916666,1.3098348436762297,1.7071308649106418,2.5391447102075535,62.33965548580557,1.1918384584623987,76.95453203028396,0.022916666666666665,13,0.14464393333333328,0.0015921194926540212,1.518552061239169e-06,33.41266666666665,0.009977753031398197,5.694445989162252e-06,99.70000000000002,0.06485882103975169,0.3299999999999983,6.097223876199941e-05
S010,10201.0,10230.984375,N1,0.04617708333333335,4.999068618450323,-21.49,24.09,45.58,0.8,15.145114771445614,593.75,600.8382161458334,0.46681429026672067,0.17242336764004274,0.32425127430572864,62.26576087798118,0.41081904296802463,64.19501538281614,0.24479166666666666,182,0.1476753,0.00141871116745681,1.839169769740063e-06,33.42533333333333,0.016069294390926733,1.5625004238555467e-05,99.94033333333333,0.12934407171915,0.5,-5.211806969348598e-05
S010,10231.0,10260.984375,N1,-0.036203124999999996,4.451918992879015,-12.82,13.59,26.41,0.48,16.80027338390841,609.375,598.0631510416666,0.5119651256975963,0.4353917456983104,0.33352696199108095,62.430233616069465,0.44405027078968545,63.796551630946325,0.3416666666666667,215,0.14975671666666662,0.0009520387875793411,7.483695606471196e-07,33.44466666666666,0.012578641509409341,1.6388893334661348e-05,99.51366666666668,0.16764015695000453,0.5200000000000102,0.0002239236718542952
S010,10261.0,10290.984375,N2,-0.014406249999999964,5.520715274985746,-21.37,26.77,48.14,0.56,17.300825565928598,593.75,596.4436848958334,0.4918067861778196,0.4477906799561102,0.16061608276155495,62.48512117401996,0.45328269476631494,63.58458932791813,0.0020833333333333333,2,0.15066373333333333,0.0010446420577828984,-2.729219490348156e-07,33.458666666666666,0.011175369742825248,6.041668305573252e-06,99.68833333333332,0.12372235942715452,0.4399999999999977,8.079863302914415e-05
S010,10291.0,10320.984375,N1,-0.014124999999999973,16.250538137403584,-212.65,78.56,291.21000000000004,0.545,20.053244222749903,609.375,600.2522786458334,2.898468338036009,2.3026345022694477,5.931201337465755,62.15941671264178,1.4048418454817004,77.6273147803014,0.011458333333333333,4,0.14966065833333328,0.0010278351642800223,4.20166129602354e-07,33.468,0.011944315244778647,-1.5972226554956854e-06,100.925,0.6975134407307152,1.980000000000004,0.0011462850331719389
S010,10321.0,10350.984375,W,-0.026250000000000002,7.214149703014209,-28.56,42.93,71.49,0.7,12.975279914418941,593.75,598.2177734375,0.4023571498577684,0.22817969283488446,0.49958207360141427,62.289908749250245,0.3268812374699724,64.8459713474939,0.065625,46,0.15058904166666665,0.0010670246357342866,-1.0421552306193668e-07,33.47400000000001,0.008000000000001251,0.0,101.423,0.053488316481267284,0.1600000000000108,-1.4201392741265457e-05
S010,10351.0,10380.984375,N1,0.03149479166666673,28.410729676204166,-196.75,181.33,378.08000000000004,0.595,16.32588194184405,578.125,587.6057942708334,29.690411973413934,12.69639975045146,6.121341027276802,63.372817476041305,4.657494514044468,146.73445403176447,0.0625,37,0.13897657499999996,0.011717672331185985,7.195813366919862e-06,33.42466666666667,0.04030991055421707,-6.861112972307314e-05,101.10766666666669,0.35754424745601565,1.1199999999999903,-0.0004940626340230674
S010,10381.0,10410.984375,N1,-0.0008020833333332737,15.587832513908479,-169.82,79.68,249.5,0.665,46.72954455883458,593.75,619.23828125,11.33853874789428,5.050080788682714,9.574922939927795,62.995665774035,0.8417800698968536,71.89575787207477,0.041666666666666664,23,0.14218909999999998,0.005233931566232026,-7.288792775822695e-06,33.38066666666666,0.014126413400278225,-1.180555875801721e-06,100.81633333333333,0.27074567812288663,0.7800000000000011,-0.00046045151379435316
S010,10411.0,10440.984375,N2,-0.01406249999999986,14.828657195621604,-127.57,64.65,192.22,0.8,10.474284086847746,593.75,598.4293619791666,0.5747045965223254,0.285583892616902,0.3837803100588784,63.24769272310126,0.3493902366979004,64.1404708432983,0.09166666666666666,71,0.13918992500000005,0.0022132650811357863,3.46414655602934e-06,33.32833333333333,0.01694763175851435,-2.093750567966288e-05,99.92633333333333,0.5689609437874946,1.5799999999999983,-0.00098260443321518
S010,10441.0,10470.984375,N2,-0.41077083333333336,9.59141767141243,-59.44,51.07,110.50999999999999,0.51,22.56037717432902,609.375,597.9736328125,3.168578781260702,2.281712281927763,1.29559173457858,63.260760199309544,1.3972332203754656,94.4986772394196,0.026041666666666668,15,0.14285099999999998,0.0030842654717128343,3.817320479958896e-06,33.30366666666667,0.015595583420386453,-1.5659726470195727e-05,99.47899999999998,0.3533209117313419,1.019999999999996,0.0006207987795135582
S010,10471.0,10500.984375,N2,0.4704218749999999,21.662317338601415,-114.32,188.73,303.04999999999995,1.45,16.155180737684635,593.75,600.4638671875,0.4524192300535227,0.464802825579478,0.30866395562164356,63.049833680308076,0.3441989039651612,65.98484674529449,0.15208333333333332,97,0.14920164166666663,0.0014972366813334943,1.851433444941787e-06,33.318333333333335,0.018988300491501887,2.7048618448519416e-05,99.63233333333334,0.1436125187981723,0.6299999999999955,3.6354176528367896e-05
S010,10501.0,10530.984375,N1,0.007994791666666693,6.403550048115722,-35.41,21.09,56.5,0.825,27.954876262918813,593.75,585.7666015625,0.5349584615234677,0.6488471346678403,0.477532312388387,63.13096486338533,0.4220786869857494,66.04543890383347,0.090625,63,0.14926544166666667,0.00290135701812052,-3.3329993850367175e-06,33.376,0.022150996967780587,2.6875007290310756e-05,99.91000000000001,0.11834976411749658,0.480000000000004,0.0001140278087098003
S010,10531.0,10560.984375,N2,-0.03819791666666667,6.234555181806932,-42.52,15.25,57.77,0.905,19.118294697719367,593.75,602.001953125,0.5362509712500917,0.14379528272281164,0.1880893515504444,63.31680160057975,0.1747905589258307,64.21059102671458,0.01875,16,0.14993801666666667,0.0015574148450949745,2.020494471705306e-06,33.44466666666667,0.023626726862226756,3.930556621787399e-05,100.86166666666668,0.16033471932872945,0.8000000000000114,6.809029624845272e-05
S010,10561.0,10590.984375,N1,-0.005218749999999976,8.303469371171412,-67.05,38.61,105.66,1.085,18.712053046689103,593.75,588.8427734375,2.5387515301023895,0.737955956040437,0.7303673150754734,63.261774750333544,0.5400050352198735,70.01428425685718,0.041666666666666664,31,0.15215782500000002,0.0010793363907397025,4.319764626672276e-07,33.49300000000001,0.014177446878758162,1.7395838052256137e-05,100.64,0.06005552985918103,0.23000000000000398,-5.687501542833587e-05
S010,10591.0,10620.984375,N2,0.007432291666666679,6.26198407893142,-14.88,29.8,44.68,0.885,25.9691870089394,593.75,592.9280598958334,0.4629490593977076,0.4041398186959008,0.26890136241442386,63.17009871394627,0.31471437360227406,64.19501538281614,0.05520833333333333,45,0.15312918333333334,0.0012786833722188203,3.0443801661187664e-07,33.541000000000004,0.018138357147216184,1.4479170594392648e-05,100.54833333333333,0.23723523253420112,0.730000000000004,0.000320382031353636
S010,10621.0,10650.984375,N2,-0.033281250000000005,5.810598753935068,-13.03,10.94,23.97,0.92,29.43327171949977,593.75,602.8483072916666,0.47543725305998297,0.23825719937822562,0.22806553639006683,63.19954425713453,0.23251671731078838,64.09368143584827,0.030208333333333334,27,0.15362026666666664,0.000996304929337514,6.852510539418028e-07,33.58400000000001,0.017243356208504326,1.715278243076962e-05,100.32833333333333,0.3526101088864146,1.2199999999999989,-0.0006268404478191317
S010,10651.0,10680.984375,N2,0.04422395833333332,6.270891693126744,-14.08,10.44,24.52,1.23,16.760680163998977,593.75,595.5240885416666,0.48653639630612994,0.16532992583014122,0.2897987058814369,63.222594857075784,0.2589231637424038,64.09368143584827,0.052083333333333336,44,0.15494374166666666,0.0009272782798404663,3.58227310717045e-07,33.62066666666667,0.019136933459209027,2.3750006442600845e-05,99.98766666666667,0.26645429043062663,0.7900000000000063,2.6909729521950017e-05
S010,10681.0,10710.984375,N2,-0.004026041666666694,6.022267818389113,-13.07,10.97,24.04,0.98,12.138673075297998,593.75,595.2718098958334,0.4896841651485397,0.17399263633843817,0.2708954255745605,63.20482612572167,0.2414285621551564,64.09368143584827,0.04895833333333333,44,0.156608425,0.0009776051321341358,7.495390488115911e-07,33.64733333333333,0.013646326326970333,1.798611599015437e-05,100.13666666666668,0.30783473199465716,0.8900000000000006,0.0005298612548451757
S010,10711.0,10740.984375,N2,-0.03754166666666663,6.086817560852078,-15.15,11.46,26.61,1.005,14.356167661646367,593.75,590.8935546875,0.49010942478582165,0.13928372696486202,0.28649431592189667,63.22072321331006,0.25114349027053456,64.09368143584827,0.059375,48,0.1573021666666667,0.0009055093164745547,8.23068799660575e-08,33.67233333333333,0.016265163865009195,7.673613192712555e-06,100.16133333333333,0.21817016803912748,0.7299999999999898,0.00016784726775370736
S010,10741.0,10770.984375,N2,0.03978125000000001,6.177292485559384,-13.49,12.53,26.02,1.11,24.98352647137949,593.75,593.5628255208334,0.47495887979908324,0.1592592172022985,0.24929588343973913,63.198369190461534,0.22932509556454864,64.09368143584827,0.040625,33,0.15807074999999998,0.0009583748418546802,7.005470650355476e-07,33.698,0.021197484127446087,2.0138894351913605e-05,100.706,0.09446692542895606,0.3200000000000074,0.0001593055987699654
S010,10771.0,10800.984375,N2,-0.02117708333333334,6.33978450523424,-14.09,10.75,24.84,0.885,9.92824867029291,593.75,589.1031901041666,0.47495887979908324,0.1428261375083551,0.21841243795982762,63.19763212620803,0.19611299585864547,64.00781202322104,0.03125,28,0.159319725,0.0009251598236926395,6.685776553216273e-07,33.72533333333333,0.019618585292749305,2.090278344802084e-05,101.10633333333332,0.05946894614465396,0.23000000000000398,3.121528624546386e-05
S010,10801.0,10830.984375,N2,0.04259375000000003,6.653446627309859,-13.59,11.01,24.6,1.005,13.111154731760541,593.75,592.9443359375,0.44492581895749767,0.1529193630552463,0.22281929337469858,63.19321714745412,0.20055727704546344,64.09368143584827,0.034375,30,0.1610488916666667,0.0010777853125416782,9.596662759511412e-07,33.76533333333333,0.017650936393166134,1.756944921046388e-05,101.34833333333333,0.061486222485654746,0.23000000000000398,7.15625194125731e-05
S010,10831.0,10860.984375,N2,-0.018437500000000016,6.61723884671145,-14.56,10.93,25.490000000000002,0.845,14.454884464976997,593.75,590.625,0.4449258189574976,0.15612494995995993,0.20549894819276648,63.19525011177669,0.19351135191684152,64.09368143584827,0.03229166666666667,30,0.16231876666666664,0.0009311884765657777,4.6293979571934685e-07,33.80233333333334,0.015849991237292055,1.3159725792027e-05,101.16799999999999,0.07867231618131981,0.28000000000000114,-1.805556045341745e-06
S010,10861.0,10890.984375,N2,-0.0021406249999999924,6.402227074344881,-13.44,10.39,23.83,0.97,11.446047467447217,593.75,588.5009765625,0.4299636107826129,0.18483053424390922,0.21972747877895374,63.190860667908645,0.21046309800374177,64.00781202322104,0.0375,34,0.16302314999999998,0.0011712398462740278,9.476408820640438e-07,33.833,0.015524174696259377,1.718750466240951e-05,101.40766666666669,0.1207113177055996,0.35999999999999943,0.00013753475953091456
S010,10891.0,10920.984375,N2,-0.0241510416666667,6.602562468789656,-14.04,11.9,25.939999999999998,0.775,12.091507941794152,578.125,585.4085286458334,0.40232478717449166,0.17950549357115012,0.23825719937822562,63.19972405603265,0.22380253497158817,64.00781202322104,0.04895833333333333,41,0.16380225833333328,0.0009754393411503841,3.8000813259769347e-07,33.886333333333326,0.016428295373801662,2.010417212027164e-05,101.75633333333334,0.12065055141007695,0.45000000000000284,6.739585161562789e-05
S010,10921.0,10950.984375,N2,0.01919791666666669,9.801482354002836,-46.94,55.42,102.36,1.045,9.698335883684397,593.75,588.0859375,1.5383748640114414,0.5143502761710372,0.5046388542947212,63.27697651271527,0.3890073811803064,65.37583651472461,0.196875,116,0.16368488333333334,0.0015476450938082989,7.142988048770641e-07,33.92866666666666,0.01707499796648973,2.263889503008542e-05,101.674,0.0346025047262961,0.15000000000000568,4.729167949535549e-05
S010,10951.0,10980.984375,N2,0.011333333333333322,6.588779532069822,-14.09,11.07,25.16,0.88,10.25714802839489,578.125,584.0983072916666,0.4590902840279773,0.4986690184185855,0.4717715118306743,63.28941302668546,0.43802443343236175,63.88270501473775,0.2677083333333333,159,0.16540346666666667,0.0011728068818958328,9.426595439072131e-07,33.99266666666667,0.022050447211388734,3.118056401382595e-05,102.002,0.137995168997566,0.5,0.0002473611782121259
S010,10981.0,11010.984375,N2,0.003807291666666668,6.571968235933091,-13.5,10.98,24.48,0.85,9.444561486983757,593.75,586.6943359375,0.4302776881141862,0.4975973086716026,0.4604956097480433,63.30515638860344,0.4388522315392774,63.88270501473775,0.28229166666666666,171,0.16664175833333333,0.0009893998264590548,2.8267564091678537e-07,34.067666666666675,0.030949780110510375,5.017362472157983e-05,102.405,0.05518151864528818,0.18000000000000682,9.420141444266312e-05
S010,11011.0,11040.984375,N2,-0.006531250000000018,6.721825013301083,-14.88,11.28,26.16,1.0,25.232190489326296,578.125,587.98828125,0.421178694921236,0.4944999139843763,0.45405077841030067,63.30396048815253,0.4186325131768639,63.88270501473775,0.25729166666666664,151,0.16789042500000004,0.0011038560116133748,9.649292982121502e-07,34.142666666666656,0.02448582356294067,3.77777880256551e-05,102.219,0.14369759914487082,0.480000000000004,-0.0002489236786359801
S010,11041.0,11070.984375,N2,-0.04193749999999999,6.596974416687326,-14.17,10.66,24.83,0.85,10.629136894540277,578.125,583.5856119791666,0.3996729891597491,0.4919093680637611,0.4550056757124636,63.2926424463278,0.4327187246218552,63.88270501473775,0.25833333333333336,152,0.16905360833333336,0.0011393655127294423,1.2830192282495758e-06,34.22633333333333,0.030384572108592606,4.996529133173159e-05,102.06866666666666,0.06844624817248107,0.21999999999999886,0.00011805558758018277
S010,11071.0,11100.984375,N2,0.04121875000000003,7.177587525158791,-17.7,11.61,29.31,0.99,25.573322269618295,578.125,585.3434244791666,0.39175530911810524,0.4856937692620732,0.4550056757124636,63.27638942614644,0.41281495935097906,63.88270501473775,0.22083333333333333,146,0.1706545916666667,0.0010716636793309878,8.64257829931055e-07,34.30733333333333,0.02264705033528376,3.652778768657384e-05,102.36766666666666,0.07315204865362462,0.29999999999999716,0.0001150347534273959
S010,11101.0,11130.984375,N2,-0.017203124999999993,6.988129372400521,-14.73,11.32,26.05,0.84,11.733378004942733,578.125,582.9264322916666,0.3698195412029434,0.47426844250440653,0.4470376549358629,63.2684665765997,0.41343525775383766,63.88270501473775,0.20833333333333334,133,0.171508575,0.0010969309205118654,1.1111454837091736e-06,34.402,0.030265491900843412,4.916668000398303e-05,102.40666666666668,0.06634924432291911,0.21999999999999886,-3.6597232149856334e-05
S010,11131.0,11160.984375,N2,0.015567708333333345,7.187513339886096,-15.15,11.78,26.93,1.01,9.18314983463826,578.125,582.8125,0.3625703356093668,0.4792017650188929,0.4388619673529353,63.28973867545638,0.4013249628111245,63.88270501473775,0.21875,134,0.17355805,0.0010967034683541429,1.1186860673519089e-06,34.48533333333334,0.02513076909996081,4.090278887336901e-05,102.46366666666667,0.08635134947153658,0.3100000000000023,1.788194929523292e-05
S010,11161.0,11190.984375,N2,-0.05104687499999997,7.412917223916376,-14.95,11.95,26.9,0.825,10.09345571681432,578.125,581.25,0.3826477111303991,0.4759755606908825,0.44111108924573134,63.281551555800576,0.41385306235514613,63.88270501473775,0.21979166666666666,131,0.17433715833333333,0.0009522814884601572,-1.4473745245698952e-08,34.579333333333345,0.024621580416826966,3.972223299756965e-05,102.85833333333333,0.07797791710193179,0.28000000000000114,0.0001351042033160306
S010,11191.0,11220.984375,N2,0.044828125000000024,8.672497409894433,-33.37,43.41,76.78,0.925,18.7869167710842,578.125,577.2298177083334,0.8551410854599765,0.5239904314223898,0.667895189663019,63.249406654251395,0.6308522424524446,74.49161026585477,0.12916666666666668,93,0.17518014166666668,0.001563775656841654,5.08886639780444e-07,34.66466666666666,0.027896634603876324,4.569445683985797e-05,103.43866666666666,0.3740297076733635,1.1299999999999955,0.0006650001803928429
S010,11221.0,11250.984375,W,-0.029864583333333337,10.095416399204591,-79.69,48.87,128.56,0.885,11.9164525259558,578.125,574.0397135416666,0.4847500787920399,0.48409490109263587,0.49084942673107224,63.23618073647501,0.4413851649849599,64.66838485689897,0.175,120,0.17653555,0.0023345312157904384,4.809580297737679e-07,34.77966666666667,0.03391001163209648,5.60069596373055e-05,104.14333333333333,0.13560563737872078,0.519999999999996,0.00020048616549646732
S010,11251.0,11280.984375,N1,0.09149479166666659,22.697691471384953,-120.98,162.05,283.03000000000003,0.885,19.053670370396887,554.6875,549.658203125,12.483893746808215,6.499717458469295,5.236291523103976,63.83639003271637,3.1995597495451307,126.10313239567049,0.051041666666666666,19,0.17141253333333334,0.0029409337942602892,9.55117012564294e-07,34.89199999999999,0.03867815921162751,6.4166684072994e-05,104.593,0.15205591076969133,0.6800000000000068,-1.885417178118782e-05
S010,11281.0,11310.984375,W,0.024557291666666523,14.491275436011238,-121.44,100.85,222.29,1.19,11.272566026968162,593.75,585.64453125,12.576756999451959,6.05648676222789,2.741846933979904,63.76004117992384,1.9700525545654812,112.27644454648535,0.015625,8,0.17148725000000004,0.0040122050322526324,-2.0327375305820133e-06,34.95333333333334,0.013743685418724812,1.1597225368170289e-05,105.24966666666667,0.1865562173239541,0.6300000000000097,-0.00019586810868818178
S010,11311.0,11340.984375,W,-0.14371354166666697,39.162876346888666,-194.14,174.9,369.03999999999996,0.86,14.325263091270186,593.75,586.9547526041666,21.364323905462115,8.766468628941885,13.719564642985418,62.91195319333765,5.0324674596688475,135.37355724069602,0.05,28,0.15880739166666666,0.0077263652755741015,6.991131887785348e-06,35.03533333333334,0.0552408866289776,8.402780057177718e-05,104.60999999999997,0.329605825191242,1.0,-0.0004547917900368321
S010,11341.0,11370.984375,W,0.08618229166666662,6.995637521438135,-32.3,14.09,46.39,1.16,15.761655218854303,593.75,592.724609375,0.1289480677120315,0.05581428468591172,0.4993746088859545,62.58814848223347,0.19290213208681317,64.90762667052309,0.29270833333333335,112,0.1659266166666667,0.0034599468906890566,-1.0905888375078264e-06,35.19066666666666,0.036417334089993716,6.229168356436722e-05,103.845,0.16891319269573554,0.6500000000000057,-0.00027767368643491936
S010,11371.0,11400.984375,W,-0.05454166666666668,64.18709884488676,-345.62,322.0,667.62,0.29000000000000004,13.869393759718758,562.5,567.138671875,16.121284967180983,19.46175369207085,15.667307167758246,63.425785656977396,4.4390461207141385,96.81425514871248,0.09166666666666666,38,0.16181733333333334,0.008520734845396586,7.379440803884771e-06,35.31666666666667,0.04867123266251713,8.166668882017372e-05,101.506,1.0636559594154495,3.089999999999989,-0.0018477782790197164
S010,11401.0,11430.984375,N1,0.08006249999999998,8.330035532652932,-17.62,14.4,32.02,1.275,12.884085695177474,593.75,584.5784505208334,0.09128709291752768,0.11987768650679835,0.47857640274452407,62.48014981659978,0.2204251087773912,63.51377803280167,0.004166666666666667,4,0.16657771666666665,0.0009824849378262963,8.398062173953449e-07,35.377333333333326,0.013888444437333369,-6.805557401680588e-06,100.384,0.13920249039917773,0.47999999999998977,0.00023416673018845666
S010,11431.0,11460.984375,N1,-0.06276562499999996,9.890483963305421,-21.4,32.36,53.76,0.695,15.512423274290812,593.75,590.3564453125,0.19878100736460938,0.09090593428863095,0.5100710990064686,62.40609586329482,0.2758153390481115,63.94528911499267,0.017708333333333333,15,0.1675169166666667,0.0010442504375813644,7.37834835567169e-07,35.366,0.01743559577416118,-4.861112429773306e-06,101.84133333333332,0.8858093599766382,2.3999999999999915,0.0014690281762771737
S010,11461.0,11490.984375,N1,0.022276041666666673,8.986079690557558,-21.91,15.94,37.85,1.28,17.896238702128628,578.125,579.6061197916666,0.21694693411574686,0.045595976308831845,0.37174367429049815,62.30504635800904,0.2519722068215939,63.51377803280167,0.19375,150,0.16878680833333337,0.0010608812554965272,8.247981838102693e-07,35.36233333333334,0.015423647068343479,3.472223164053285e-08,102.27566666666668,0.17394794879184217,0.46999999999999886,0.0002296875623067417
S010,11491.0,11520.984375,N2,0.006296875000000017,9.443764994770282,-23.5,29.0,52.5,1.45,24.960672386750133,578.125,583.5123697916666,0.22683472629991105,0.05581428468591172,0.26836818808308854,62.28796599584182,0.2347880622692982,63.51377803280167,0.125,110,0.16876542500000005,0.0009013677353749694,-2.573058423681213e-07,35.392666666666656,0.012364824660660216,1.2500003390841678e-05,102.62700000000001,0.16250435891589543,0.539999999999992,0.00027545146360987804
S010,11521.0,11550.984375,N2,-0.07647395833333333,8.945734412646816,-19.68,14.31,33.99,1.42,26.052548995769587,578.125,583.1705729166666,0.26789268944029726,0.045595976308831845,0.16532992583014122,62.285420048494736,0.2508141062678947,63.51377803280167,0.09895833333333333,87,0.16982198333333334,0.0009851542009869454,3.360421918517243e-07,35.428666666666665,0.01927577639306852,2.5416673561381866e-05,102.85933333333334,0.1327135595517217,0.38999999999998636,3.61111209068771e-05
S010,11551.0,11580.984375,N2,0.03713541666666668,8.707127356032087,-19.39,13.29,32.68,1.415,11.321010767267301,578.125,573.9501953125,0.2787621447279622,0.04559597630883184,0.1496378730654628,62.285080261741356,0.2541852115461016,63.51377803280167,0.10104166666666667,90,0.17056918333333335,0.0009594795810171756,-1.203958659928027e-07,35.461333333333336,0.014313940369055018,1.2430558927559381e-05,103.10766666666667,0.12159175776159939,0.45000000000000284,0.00020600700032741978
S010,11581.0,11610.984375,N2,-0.018630208333333325,9.141382482786039,-18.28,14.27,32.55,1.44,10.707702771532913,578.125,571.7529296875,0.2814409074299612,0.0,0.16232629604869597,62.28449516126224,0.26020025627560944,63.51377803280167,0.10208333333333333,96,0.17087875833333335,0.0009725122620977907,2.62405670140428e-07,35.48866666666667,0.012310790208413015,1.2569447854125063e-05,103.76899999999999,0.16428329190760596,0.6299999999999955,0.0002803125760396516
S010,11611.0,11640.984375,N2,0.028276041666666685,9.31086788812144,-19.09,14.2,33.29,1.63,11.124957252448889,578.125,572.94921875,0.2942427162083484,0.07198059875565237,0.09636964965693294,62.29253641520017,0.26479292719604575,63.51377803280167,0.10104166666666667,95,0.171337775,0.0009276200323273564,4.086524546040735e-08,35.51633333333333,0.018162843634433462,1.781250483195084e-05,104.58733333333333,0.19223134210864012,0.7000000000000028,0.0003018056374255762
S010,11641.0,11670.984375,N2,0.06916145833333333,9.175020741062726,-18.9,14.1,33.0,1.52,10.73270128414979,578.125,573.0305989583334,0.30135688514155806,0.04564354645876384,0.03225804701500421,62.29467348938216,0.269468336915106,63.51377803280167,0.09791666666666667,91,0.17162599999999997,0.0009207767644766052,3.7918499869384927e-07,35.54533333333334,0.015860503004493064,1.618055994481228e-05,104.536,0.07472616676907526,0.25,-0.0001258333674678154
S010,11671.0,11700.984375,N2,-0.06613541666666664,9.311892813672685,-19.51,15.45,34.96,1.38,11.388226091797478,562.5,570.2229817708334,0.3265571005667394,0.0,0.07198059875565235,62.304748917535,0.2914257874432411,63.51377803280167,0.115625,109,0.17304576666666666,0.0009755014328823725,2.149084784365455e-07,35.576666666666675,0.011925695880000742,9.027780226721306e-06,104.57566666666665,0.06686719840267281,0.25,0.00011392364201487881
S010,11701.0,11730.984375,N1,-0.039984374999999996,9.116456779829862,-18.47,13.77,32.239999999999995,1.56,9.553565079228965,578.125,577.392578125,0.31151929448002624,0.06441510347391793,0.05581428468591172,62.30393652675726,0.27710094995856893,63.095166217389426,0.11041666666666666,103,0.1731738583333333,0.0009191868534728007,-4.36694996933324e-08,35.588666666666676,0.017074997966487603,1.291667017053762e-05,104.53200000000001,0.07993330553238334,0.28000000000000114,-0.00012347225571621574
S010,11731.0,11760.984375,N2,0.08416145833333331,9.304151594907218,-18.73,13.76,32.49,1.5950000000000002,10.793543884315993,578.125,575.7649739583334,0.3283415290855274,0.05581428468591172,0.0,62.31757988745098,0.2913107810623581,63.095166217389426,0.12291666666666666,114,0.17389961666666665,0.0009419827420865492,1.2807208335288758e-07,35.60600000000001,0.010832051206180438,4.861112429772172e-06,104.19366666666666,0.1543045329499048,0.5,-0.00025934034812834656
S010,11761.0,11790.984375,N2,-0.009015624999999979,9.392671801050852,-19.63,14.39,34.019999999999996,1.65,11.816986321957787,578.125,572.7783203125,0.33306629928922893,0.06441510347391793,0.032258047015004204,62.3215034719932,0.29579833840773034,63.095166217389426,0.128125,117,0.17457188333333332,0.001040268788850053,9.682029536140825e-07,35.63166666666667,0.013186693629900978,1.3229170255307545e-05,104.174,0.13027151133945694,0.44999999999998863,0.00022472228318204014
S010,11791.0,11820.984375,N2,-0.10700000000000004,9.24251552834328,-19.96,13.96,33.92,1.4449999999999998,10.75844815205499,578.125,573.5758463541666,0.372035446246576,0.07880950133074056,0.07198059875565235,62.338554774600524,0.33292433694348417,64.39720490828775,0.14895833333333333,133,0.17537222499999996,0.0009662246500555592,2.49882229243223e-07,35.655666666666654,0.004955356249105183,2.3958339832444187e-06,104.28533333333331,0.06873782720517872,0.25,6.74305738472717e-05
S010,11821.0,11850.984375,N2,0.088140625,10.826120714263626,-57.36,65.42,122.78,1.435,10.735477702439047,578.125,573.7630208333334,0.2847220105012763,0.07880950133074056,0.16532992583014122,62.29657975477982,0.2635985388616805,63.51377803280167,0.1125,98,0.17554293333333332,0.0009681742244497504,4.2717155684991975e-07,35.672666666666665,0.015902480589170234,1.5902782091684737e-05,104.48066666666666,0.02862788073811069,0.0799999999999983,-4.069445548352056e-05
S010,11851.0,11880.984375,N2,0.021046874999999982,9.531838823226575,-19.09,14.52,33.61,1.5150000000000001,9.087790209465055,578.125,576.1555989583334,0.32375395482354946,0.1015291077584267,0.10642856726723118,62.3126793455165,0.29010248104056735,63.095166217389426,0.12708333333333333,116,0.176044525,0.0008406557853098875,3.3131280688823626e-07,35.69466666666666,0.01978776277287462,2.1458339154280493e-05,104.32199999999999,0.06920500945259211,0.18999999999999773,-0.00012138892181774135
S010,11881.0,11910.984375,N2,-0.033312500000000037,9.661250343201464,-20.7,14.97,35.67,1.475,22.1964738276367,578.125,577.9052734375,0.3247177593909654,0.1155780685534914,0.06441510347391793,62.31448405749448,0.2902469895317975,63.095166217389426,0.12395833333333334,114,0.17680239166666667,0.0009412320763750091,5.14554610067978e-07,35.733333333333334,0.013743685418725672,1.2013892147865046e-05,103.88533333333334,0.21206497955946452,0.6300000000000097,-0.0003673612107642192
S010,11911.0,11940.984375,N2,-0.04542187499999996,10.069421865083491,-26.09,22.62,48.71,1.6949999999999998,9.438697447047488,578.125,575.5940755208334,0.3013838885273878,0.11110243021644486,0.05581428468591172,62.29764489422441,0.2686831463162424,63.095166217389426,0.10416666666666667,97,0.17682374166666665,0.00098246130963542,3.6220864860260405e-07,35.75066666666667,0.01671991493864799,1.354167034008169e-05,103.92233333333334,0.054508918740168215,0.20000000000000284,1.3368059181874062e-05
S010,11941.0,11970.984375,N2,-0.01786979166666667,9.626479647832282,-27.04,26.01,53.05,1.5150000000000001,11.78704318737602,578.125,575.5940755208334,0.31019811937516467,0.09090593428863096,0.06441510347391793,62.30260507738346,0.2794797039590702,63.51377803280167,0.10833333333333334,100,0.17778448333333333,0.001195890630334657,9.037354882094967e-07,35.784666666666666,0.012578641509407735,1.0138891639238756e-05,103.80733333333335,0.07619857099855763,0.21999999999999886,-0.00011180558588475914
S010,11971.0,12000.984375,N2,0.0568697916666667,9.70147434799023,-19.93,15.04,34.97,1.625,10.963324682847597,578.125,574.6907552083334,0.3274480450731417,0.11557806855349138,0.04559597630883185,62.31083250394469,0.29358871234236666,63.51377803280167,0.11979166666666667,107,0.17844632500000002,0.0009378824389948912,-3.260879790820267e-07,35.81033333333334,0.015162087220725533,7.673613192712433e-06,103.83500000000001,0.11951987282456404,0.29999999999999716,0.00020829866761574027
S010,12001.0,12030.984375,N2,-0.03011979166666666,9.685981296882966,-19.95,15.73,35.68,1.685,10.758143433210499,578.125,580.4850260416666,0.3244770766385337,0.10642856726723118,0.03225804701500421,62.3062056373378,0.2891609893729748,63.095166217389426,0.115625,105,0.178574425,0.0009157507545041968,2.3712962161719422e-07,35.824333333333335,0.012565384549980133,1.0659725113857378e-05,103.97399999999999,0.1408450685446036,0.4000000000000057,0.0001932639413150899
S010,12031.0,12060.984375,N2,-0.012515625,9.540999269313856,-20.19,15.09,35.28,1.59,10.77481026832775,578.125,574.7802734375,0.33344887320497374,0.12401959270615269,0.032258047015004204,62.31459387213222,0.2970951888212335,63.095166217389426,0.125,113,0.1792896416666667,0.000992006920303766,-5.954565417362601e-07,35.84266666666667,0.012892719737208208,1.0902780735345475e-05,103.672,0.14706914473584748,0.519999999999996,-0.00023763895335258278
S010,12061.0,12090.984375,N2,0.086859375,9.739296837908334,-23.86,18.53,42.39,1.755,26.10726677097719,578.125,580.0374348958334,0.33306629928922893,0.12401959270615269,0.04559597630883184,62.31964549397036,0.2963564956697899,63.095166217389426,0.12916666666666668,114,0.17886263333333335,0.0009449105507342455,2.5685467037073385e-07,35.869,0.015132745950420516,1.5937504323324235e-05,103.64599999999999,0.14239850186477782,0.39000000000000057,-0.00019763894250188343
S010,12091.0,12120.984375,N2,-0.06541666666666665,9.726596111164595,-19.44,14.43,33.870000000000005,1.5,9.992959405046056,578.125,574.51171875,0.3373311691918393,0.12401959270615269,0.03225804701500421,62.32012968155526,0.29996356578961786,63.095166217389426,0.13020833333333334,117,0.17974865833333334,0.0008827636857792467,-1.1477628981561715e-07,35.890333333333324,0.0160173517023113,1.0868058503704177e-05,103.864,0.08195933951255086,0.3200000000000074,5.486112599314457e-05
S010,12121.0,12150.984375,N2,0.03212500000000001,9.765353929037852,-19.96,14.94,34.9,1.5750000000000002,9.889751372306986,578.125,573.3968098958334,0.32547874727938164,0.11987768650679835,0.05581428468591172,62.31198712768426,0.2915650858889367,63.51377803280167,0.12083333333333333,111,0.17974859999999998,0.0010522433843935571,7.846612371585411e-07,35.92733333333332,0.01982142499642637,2.8055563166116525e-05,104.15166666666667,0.2402649001044946,0.5700000000000074,0.0004095487222083149
S010,12151.0,12180.984375,N2,0.01383333333333336,9.899820494654886,-20.25,15.62,35.87,1.64,10.026461109453711,578.125,575.0081380208334,0.3361792573249509,0.10642856726723118,0.032258047015004204,62.32003960745712,0.29957746628930826,63.095166217389426,0.12916666666666668,118,0.18023961666666669,0.0008897923464057371,1.331341506982835e-07,35.95,0.01154700538379227,7.222224181375734e-06,104.43533333333335,0.044251804734072794,0.10000000000000853,7.458335356536851e-05
S010,12181.0,12210.984375,N2,-0.02271354166666668,10.17882975025166,-21.12,15.46,36.58,1.645,8.940389093602848,578.125,575.0081380208334,0.3717217821615157,0.1428261375083551,0.0,62.34909005473637,0.3312391075548715,63.095166217389426,0.16354166666666667,139,0.18073047499999997,0.0009023367161847093,9.30119609949983e-08,35.970000000000006,0.014605934866804117,1.083333627206409e-05,104.36633333333333,0.03646764166886868,0.14000000000000057,-2.3506950821110527e-05
S010,12211.0,12240.984375,N2,0.06729166666666668,10.541082875386374,-21.64,15.75,37.39,1.72,11.34901203891511,578.125,576.26953125,0.3886352099191334,0.17950549357115012,0.0,62.366877101997076,0.3472134949245208,63.095166217389426,0.18541666666666667,159,0.18026090833333333,0.0009568448672227704,3.423633741220111e-08,35.99366666666667,0.01015983376941871,9.618058164620601e-06,104.25433333333334,0.05031125343521121,0.21999999999999886,-3.496528726271821e-05
S010,12241.0,12270.984375,N2,-0.004807291666666654,10.354177657489922,-20.83,15.95,36.78,1.66,10.283930987111983,578.125,573.6246744791666,0.39624978093229135,0.15612494995995996,0.04559597630883185,62.373246493885226,0.3520726435930926,63.095166217389426,0.19270833333333334,164,0.180655725,0.0010170457705408376,-2.418262374745661e-07,36.017333333333326,0.016316317667360726,1.4930559605729024e-05,103.90233333333332,0.10594600301830942,0.3400000000000034,-9.468752568563402e-05
S010,12271.0,12300.984375,N2,-0.14901562499999996,10.182257455770268,-24.89,15.02,39.91,1.51,10.553905514250763,578.125,574.2838541666666,0.4007791348493027,0.17116012950028855,0.0,62.38134732341992,0.3576629440093763,63.095166217389426,0.20104166666666667,177,0.18093318333333333,0.0011056652068877945,8.087163652116901e-07,36.035999999999994,0.013564659966249094,4.02777887038281e-06,103.81700000000001,0.10318753154653286,0.29999999999999716,-6.281251703898585e-05
S010,12301.0,12330.984375,N2,0.015036458333333306,10.135766847259468,-20.17,23.22,43.39,1.62,26.38702776408158,578.125,577.587890625,0.4030913530316532,0.16232629604869594,0.0,62.38474747060948,0.35874739713321074,63.095166217389426,0.20416666666666666,172,0.1818829083333333,0.0009129169001597173,-3.5876984558643913e-07,36.05,0.013662601021279173,1.0138891639239595e-05,104.00433333333332,0.05011209656581796,0.14999999999999147,2.357639528439392e-05
S010,12331.0,12360.984375,N2,0.06323958333333334,10.385033874167181,-25.86,21.95,47.81,1.6949999999999998,10.249691051386122,578.125,571.8994140625,0.40155405579102577,0.17677362623014653,0.0,62.381850783858305,0.35867968128871924,63.095166217389426,0.20208333333333334,171,0.1817975833333333,0.0010362952248541735,5.521290560245936e-07,36.06933333333333,0.014126413400279609,1.1458336441607492e-05,104.17866666666667,0.11014334094966989,0.36999999999999034,9.590280379308021e-05
S010,12361.0,12390.984375,N2,0.059177083333333304,10.090984938604432,-20.09,15.16,35.25,1.62,8.334207488941159,578.125,571.3053385416666,0.3911440995301121,0.17677362623014653,0.0,62.369857957377754,0.34878605169311283,63.095166217389426,0.18854166666666666,165,0.18236314999999995,0.000893191400260886,2.634623110520599e-07,36.08666666666667,0.013743685418725674,8.402780057178297e-06,104.15433333333334,0.05754322047141987,0.21999999999999886,6.871529641799671e-05
S010,12391.0,12420.984375,N2,-0.10271875000000001,10.582076178814429,-21.3,16.63,37.93,1.4100000000000001,10.171888000823746,562.5,568.5546875,0.38436088501635485,0.17399263633843817,0.03225804701500421,62.36225127792053,0.34404294717227063,63.095166217389426,0.18020833333333333,158,0.1832277333333333,0.0008950855055368787,3.9338422129563044e-07,36.107333333333344,0.011234866364234344,1.0972225198628316e-05,104.36266666666667,0.09025642482517345,0.23999999999999488,0.0001525000413682831
S010,12421.0,12450.984375,N2,0.0002083333333333955,10.590716972814631,-21.6,15.89,37.49,1.65,9.682093790134616,562.5,566.5934244791666,0.389622324252032,0.17399263633843817,0.032258047015004204,62.365029096926136,0.3476407238639634,63.095166217389426,0.184375,153,0.18388957499999994,0.0009595037750707306,6.485620248920368e-07,36.129000000000005,0.013253930234713447,1.3229170255308829e-05,104.87133333333334,0.14103742608100753,0.45000000000000284,0.00021680561436784228
S010,12451.0,12480.984375,N2,0.09429687499999999,10.64160574043137,-21.35,16.71,38.06,1.94,9.395573259294052,562.5,569.6207682291666,0.384458267855202,0.17677362623014653,0.032258047015004204,62.35928013318421,0.3436538050475341,63.095166217389426,0.17708333333333334,154,0.18441264999999998,0.0009352664740596596,-9.45182548063755e-09,36.157999999999994,0.010770329614268801,1.1388891978323319e-05,104.94000000000003,0.03473710792029968,0.0799999999999983,-5.20833474618419e-05
S010,12481.0,12510.984375,N2,-0.03286979166666664,10.757714627367614,-21.46,17.36,38.82,1.69,10.768345282903773,562.5,569.43359375,0.38436088501635485,0.15925921720229852,0.03225804701500421,62.36329655470846,0.34380395986742407,63.095166217389426,0.18020833333333333,158,0.18518112500000003,0.0009862694659042227,3.8914311771460404e-07,36.170999999999985,0.018681541692270667,1.8298616074930017e-05,104.9406666666667,0.018785337071472074,0.04999999999999716,-2.444445107542349e-05
S010,12511.0,12540.984375,N2,-0.015171875000000041,10.748851763853306,-24.72,16.81,41.53,1.75,8.773673442665928,578.125,571.9319661458334,0.3773019624032365,0.15612494995995996,0.0,62.35378200562029,0.3379392384968697,63.095166217389426,0.16979166666666667,148,0.18610958333333336,0.0008870115330266155,-1.5094361733496616e-07,36.20133333333333,0.0196185852927497,1.743056028389763e-05,104.89433333333336,0.023192431715734853,0.060000000000002274,-3.322917568066484e-05
S010,12541.0,12570.984375,N2,-0.017114583333333377,10.786218440068357,-22.11,16.52,38.629999999999995,1.8,9.434907732626233,578.125,570.8089192708334,0.3921415007331184,0.16232629604869594,0.0,62.369064339200484,0.34883872014085965,63.095166217389426,0.1875,162,0.18604553333333337,0.000984875592256314,4.4929743090750753e-07,36.22666666666667,0.014681810363696163,1.3541670340079665e-05,104.88000000000002,2.842170943040401e-14,0.0,0.0
S010,12571.0,12600.984375,N2,0.05723437499999996,10.827628313873804,-22.62,16.09,38.71,1.8050000000000002,10.33726951017227,562.5,569.3277994791666,0.3860847250676405,0.14627537173085564,0.03225804701500421,62.3659865482895,0.3436522349289942,63.095166217389426,0.18229166666666666,154,0.18679250000000003,0.0008746240620975417,-7.48611314184937e-09,36.24733333333334,0.012364824660662155,-2.916667457864029e-06,104.94833333333334,0.054472215139669204,0.12000000000000455,9.017363557227807e-05
S010,12601.0,12630.984375,N2,-0.008552083333333372,10.659994654245251,-21.59,16.05,37.64,1.795,10.798218376865456,578.125,570.6705729166666,0.39461985047497156,0.17399263633843817,0.0,62.37098515412161,0.35326227887285433,63.095166217389426,0.190625,164,0.18708064166666669,0.0010019736506501698,-6.130772062383933e-07,36.26466666666667,0.01146976702272425,4.7222235032077235e-06,105.0,0.0,0.0,0.0
S010,12631.0,12660.984375,N2,-0.08730208333333339,10.746350296747837,-21.93,16.57,38.5,1.5550000000000002,9.81431816518595,562.5,569.1569010416666,0.38445826785520193,0.17399263633843817,0.0,62.35990622168538,0.3452236317763305,63.095166217389426,0.178125,152,0.1872727166666667,0.0009666294893713041,4.746663614003816e-07,36.282000000000004,0.01681269361722424,2.2638895030080584e-05,105.0,0.0,0.0,0.0
S010,12661.0,12690.984375,N2,0.10769270833333336,10.709327196389221,-21.08,16.44,37.519999999999996,1.795,20.409273638545212,578.125,571.4518229166666,0.39523529384405937,0.17116012950028855,0.032258047015004204,62.37446260850849,0.35260596484060214,63.095166217389426,0.19375,162,0.18817995,0.000980585665559112,3.6943890230005067e-07,36.29933333333334,0.011234866364236255,2.638889604734192e-06,105.0,0.0,0.0,0.0
S010,12691.0,12720.984375,N2,-0.021411458333333303,10.793421676992367,-20.97,18.38,39.349999999999994,1.79,11.604643646975068,578.125,570.9228515625,0.3927939782825087,0.17950549357115012,0.0,62.37148495776493,0.35200259937803235,63.095166217389426,0.190625,163,0.1881265583333334,0.0009234737119145449,-5.181757048002689e-07,36.31066666666667,0.01209223809814432,1.0208336102521646e-05,104.77466666666666,0.12265760836119655,0.38000000000000966,-0.00021625005866158178
S010,12721.0,12750.984375,N2,-0.048442708333333334,10.734445128196397,-23.02,16.92,39.94,1.75,10.607406785711088,578.125,572.4853515625,0.39999999999999997,0.1874276480775686,0.0,62.37917260121455,0.3568854922099858,63.095166217389426,0.2,168,0.18827600000000005,0.0009355101282188269,-7.450262437679712e-08,36.32366666666667,0.0116856987619714,1.1423614209964418e-05,104.30433333333333,0.11695250697992297,0.35999999999999943,-0.00018281254959107856
S010,12751.0,12780.984375,N2,0.03185937500000002,10.895663373324634,-23.32,20.89,44.21,1.835,8.759837599767794,562.5,568.6197916666666,0.3960402419753438,0.2021987428181051,0.045595976308831845,62.37244416072205,0.35514234368067765,63.095166217389426,0.19479166666666667,166,0.18864962500000004,0.0010113118877848747,5.423679856684007e-07,36.341,0.02071231517720728,2.1284727996074988e-05,104.346,0.04355838993045374,0.1700000000000017,4.527779006016619e-05
S010,12781.0,12810.984375,N2,-0.03316666666666669,10.916374869191797,-22.07,17.05,39.120000000000005,1.81,10.311071508864101,562.5,569.3115234375,0.4090767042988393,0.194978186101819,0.0,62.38961964320309,0.3650718328113792,63.095166217389426,0.2125,179,0.18967442500000004,0.0008750244821575025,2.58813221249247e-07,36.361000000000004,0.01699999999999783,6.597224011832217e-07,104.65400000000001,0.10021975853093948,0.3199999999999932,0.00014965281837370036
S010,12811.0,12840.984375,N2,-0.004911458333333322,11.185165025998813,-22.53,17.55,40.08,1.665,8.700590959845032,562.5,567.724609375,0.3903123748998999,0.17677362623014653,0.032258047015004204,62.36850089774716,0.34954127230418264,63.095166217389426,0.1875,163,0.189781175,0.000973651295061536,1.1369990063473904e-07,36.38466666666667,0.015434449203720382,1.2361114464277426e-05,104.81533333333336,0.10385031963787743,0.23000000000000398,0.0001711111575279865
S010,12841.0,12870.984375,N2,0.049750000000000044,11.345109957047573,-22.65,17.25,39.9,2.135,8.580573412919604,562.5,568.5302734375,0.41268803584615293,0.21794494717703367,0.03225804701500421,62.391705590746106,0.37090898837914654,63.095166217389426,0.21770833333333334,180,0.18980252500000003,0.0009684878674382073,1.0369208541994537e-07,36.403999999999996,0.016451950239003664,8.402780057177237e-06,104.97833333333334,0.02395597814510661,0.04999999999999716,3.8229177036992484e-05
S010,12871.0,12900.984375,N2,0.026958333333333268,11.302218869463813,-22.33,17.37,39.7,1.865,10.248427769276564,562.5,568.9778645833334,0.41620286686769575,0.21358993356949718,0.032258047015004204,62.396729785588526,0.37526043967021017,63.095166217389426,0.22291666666666668,183,0.1913183333333333,0.0009216104141965608,2.882175261006735e-07,36.43,0.01032795558988806,5.1388902829028975e-06,105.0,0.0,0.0,0.0
S010,12901.0,12930.984375,N2,-0.09498958333333335,11.225397793614777,-22.22,16.35,38.57,1.6749999999999998,9.382029829398316,562.5,569.6207682291666,0.42163187438807326,0.194978186101819,0.04559597630883184,62.40537112843922,0.3775857365288554,63.095166217389426,0.23020833333333332,195,0.19151047499999999,0.0008586139699393433,4.861568159062464e-08,36.446000000000005,0.014047538337137563,8.333335593895407e-06,105.0,0.0,0.0,0.0
S010,12931.0,12960.984375,N2,0.09615104166666671,11.415310868161662,-24.55,18.74,43.29,2.085,24.266475564602427,578.125,574.2350260416666,0.4068625190098002,0.20912350152216008,0.04559597630883184,62.38472489626791,0.3669349855719115,63.095166217389426,0.209375,177,0.19154245833333328,0.0010037345756044704,5.00833686207053e-07,36.45133333333333,0.012578641509408663,4.166667796947457e-06,104.756,0.17728696135550115,0.4200000000000017,-0.0003018056374255759
S010,12961.0,12990.984375,N2,0.017729166666666744,11.503969883152624,-22.71,17.1,39.81,1.8599999999999999,9.535034623430201,562.5,567.7164713541666,0.4261919050504779,0.22428271082497644,0.05581428468591172,62.40868079961806,0.38364808273047474,63.095166217389426,0.23854166666666668,193,0.19216144999999998,0.0008892068924046797,-2.940447846258627e-07,36.470333333333336,0.013287420951996138,-6.284723927062088e-06,104.59033333333333,0.01940503943710313,0.04999999999999716,2.5520840256303267e-05
S010,12991.0,13020.984375,N2,-0.11298437499999997,10.99881844031845,-21.5,16.6,38.1,1.725,10.345185112743044,562.5,569.7672526041666,0.4324096224614136,0.2263462809256845,0.045595976308831845,62.4181211726326,0.39000975870701593,63.095166217389426,0.24895833333333334,201,0.19174520833333328,0.0010377271710797658,-5.365867341001295e-07,36.484,0.011430952132988916,-4.861112429768085e-07,104.82400000000001,0.14174154883684217,0.3400000000000034,0.00024375006612143855
S010,13021.0,13050.984375,N2,0.07967708333333333,11.127751588553645,-22.14,16.37,38.510000000000005,2.115,8.921869275354204,578.125,570.8170572916666,0.4229525846816507,0.25124473114984036,0.03225804701500421,62.40200651595448,0.37914304614477834,63.095166217389426,0.23333333333333334,190,0.19214004166666665,0.0011088037051693177,7.832256898941195e-07,36.487,0.011298967504452506,-3.5763898590461645e-06,104.95966666666668,0.019405039437102405,0.04999999999999716,-2.5520840256302328e-05
S010,13051.0,13080.984375,N2,-0.08924999999999998,11.230128721620543,-22.79,18.05,40.84,1.745,10.762833300825104,562.5,569.3684895833334,0.41268803584615293,0.2530285309999645,0.0,62.388375130052246,0.37084178820379804,63.095166217389426,0.21770833333333334,184,0.19204403333333328,0.0009821617308547216,-3.031628426548483e-07,36.497,0.007810249675906101,6.145835000496824e-06,105.01833333333335,0.06439893028787017,0.1599999999999966,7.649307630562835e-05
S010,13081.0,13110.984375,N2,0.06337499999999997,11.182448709035437,-22.46,17.91,40.370000000000005,2.1550000000000002,23.217275680802523,562.5,571.8587239583334,0.4083426338226542,0.23632521950693283,0.05581428468591172,62.38342841302729,0.36876067672631296,63.095166217389426,0.21145833333333333,177,0.19208674166666662,0.0009563066235595549,7.12237823415203e-07,36.513999999999996,0.01685229954635279,1.4097226046339637e-05,104.92300000000002,0.01037625494418204,0.04999999999999716,-8.71528014194909e-06
S010,13111.0,13140.984375,N2,0.005260416666666694,11.360078836970418,-25.11,17.38,42.489999999999995,1.94,12.942244830361412,562.5,570.0113932291666,0.42163187438807326,0.24578919095210205,0.045595976308831845,62.40034678358699,0.38031296947581605,63.095166217389426,0.23125,191,0.19287635833333328,0.0009423024178029074,5.310033992522189e-07,36.532000000000004,0.018330302779822193,1.701389350420221e-05,104.61133333333332,0.1201036589321448,0.39000000000000057,-0.00013715281498286093
S010,13141.0,13170.984375,N2,-0.037520833333333344,11.552522203847925,-22.94,18.66,41.6,1.57,8.79171449187229,562.5,566.9270833333334,0.4260594943295283,0.26836818808308854,0.045595976308831845,62.40040511130337,0.3844155024920794,63.095166217389426,0.23541666666666666,195,0.19338862499999995,0.001038932473443286,5.759951649292376e-07,36.55466666666667,0.01334998959633463,1.1597225368171202e-05,104.69600000000004,0.01113552872565936,0.04999999999999716,7.569446497788095e-06
S010,13171.0,13200.984375,N2,0.07723958333333332,11.924254784755586,-26.91,18.49,45.4,2.185,9.189115692188246,562.5,566.6422526041666,0.4311933839647821,0.2667236267291586,0.05581428468591172,62.41126043824055,0.3888922431425876,63.095166217389426,0.24583333333333332,199,0.1939648583333333,0.0010299086148443236,5.705650419284483e-07,36.56066666666667,0.014360439485693243,7.5000020345066855e-06,104.87600000000002,0.08428523002282204,0.25,0.00011090280786209024
S010,13201.0,13230.984375,N2,0.014354166666666668,11.332027142847508,-24.47,20.21,44.68,1.89,22.417941750869495,562.5,569.62890625,0.4433096406576333,0.2732186624299299,0.08507936450096985,62.428092039314514,0.4018075794133055,63.095166217389426,0.26666666666666666,217,0.19460528333333332,0.000996306179372366,-4.1836556487781255e-07,36.57533333333334,0.017074997966489303,1.9305560792526117e-05,104.91633333333334,0.011685698761972159,0.04999999999999716,-1.0520836187292757e-05
S010,13231.0,13260.984375,N2,-0.03217708333333337,11.422474016435384,-22.36,17.0,39.36,1.8450000000000002,9.527686726314556,562.5,567.5944010416666,0.4287201864431962,0.28408104465197176,0.05581428468591172,62.405266069963915,0.3879111629516712,63.095166217389426,0.24270833333333333,206,0.19430642499999998,0.0009837856699378175,2.515506324735872e-07,36.594000000000015,0.014047538337136211,1.5694448701835398e-05,104.82233333333329,0.006155395104207482,0.030000000000001137,-5.937501610651999e-06
S010,13261.0,13290.984375,N2,-0.11882291666666663,11.411366581628519,-22.62,16.95,39.57,1.835,24.652218401895166,562.5,570.5891927083334,0.4305801964275128,0.285583892616902,0.045595976308831845,62.408251678128885,0.38960126538351036,63.095166217389426,0.24479166666666666,204,0.19481878333333333,0.0009613787337580477,-2.6214156416600655e-07,36.606666666666676,0.016397831834998083,1.4236114972904185e-05,104.8093333333333,0.026195843605848448,0.0899999999999892,-2.902778565206538e-05
S010,13291.0,13320.984375,N2,0.04351562500000004,11.593144952081131,-22.91,17.49,40.4,1.97,10.040718334576946,562.5,565.4866536458334,0.43420885111762625,0.29860606423383673,0.045595976308831845,62.41190418282631,0.39402784212971437,63.095166217389426,0.2520833333333333,212,0.1949682333333333,0.0010388581370374373,5.023204487631438e-07,36.616,0.01380821011813903,1.3194448023674545e-06,104.85866666666665,0.08261288573151951,0.269999999999996,0.00014034726029385491
S010,13321.0,13350.984375,N2,0.13214583333333335,11.768381835256676,-25.01,23.82,48.83,2.04,9.57461582582886,562.5,566.3248697916666,0.431803187870997,0.3,0.03225804701500421,62.40842307164435,0.39288002067877326,63.095166217389426,0.24791666666666667,199,0.19494688333333332,0.0009627989767974554,-3.299757839561056e-07,36.635999999999996,0.01380821011813769,9.027780226711196e-07,105.01533333333333,0.027047283700134754,0.12000000000000455,3.5555565200619584e-05
S010,13351.0,13380.984375,N2,-0.07767708333333335,11.796678205638717,-23.78,17.75,41.53,1.84,9.096250716759764,562.5,564.5263671875,0.4286290625516297,0.2914805954090255,0.032258047015004204,62.40136802270316,0.39064335203911843,63.095166217389426,0.23958333333333334,198,0.19532049166666668,0.0010588902838650925,7.6335589283743e-07,36.643333333333324,0.012472191289244624,3.6805565539698098e-06,105.11933333333333,0.056505653601113606,0.14000000000000057,-8.812502390544562e-05
S010,13381.0,13410.984375,N2,0.06918750000000001,11.83113027172427,-23.15,17.67,40.82,1.96,9.320073466732232,562.5,568.9371744791666,0.42163187438807326,0.2914805954090255,0.05581428468591172,62.394057302931294,0.383716403773618,63.095166217389426,0.23020833333333332,198,0.19548062500000002,0.000993119295137803,-5.929630514765243e-07,36.64866666666665,0.008055363982394778,-6.250001695420223e-07,105.211,0.04109744517606902,0.1700000000000017,5.447918144508901e-05
S010,13411.0,13440.984375,N2,-0.005406249999999968,11.986418096883416,-23.19,18.31,41.5,1.9049999999999998,9.624633253632425,562.5,565.4296875,0.42555111326373,0.30815732589052625,0.032258047015004204,62.397949484681945,0.38603770162899353,63.095166217389426,0.2375,188,0.19526712499999999,0.0009339862468875041,-4.420118386533871e-08,36.65166666666666,0.007340905181846953,6.423612853626341e-06,105.25366666666666,0.03361381990920837,0.11999999999999034,-4.2326400370655867e-05
S010,13441.0,13470.984375,N2,0.015114583333333265,12.16909237608557,-26.51,21.57,48.08,1.98,24.629893150794786,562.5,568.3837890625,0.4207495275464437,0.3,0.03225804701500421,62.38905638968255,0.38108547380217245,63.095166217389426,0.22708333333333333,187,0.195928975,0.0010519615365473245,9.321167893111982e-07,36.655666666666654,0.006674994798166464,3.2986120059162037e-06,105.05966666666664,0.054557818464041716,0.14999999999999147,-4.927084669890253e-05
S010,13471.0,13500.984375,N2,-0.12423437500000002,12.118867802301159,-23.44,18.39,41.83,1.74,9.384655395523806,578.125,571.2809244791666,0.42555111326373,0.3094837070518504,0.05581428468591172,62.39686531854227,0.38991249406701517,63.095166217389426,0.2375,193,0.1969431,0.0008864750363095429,-1.4455733088035256e-08,36.666999999999994,0.011000000000001172,4.340278955154166e-06,104.97933333333334,0.002494438257850571,0.010000000000005116,-1.9444449719098952e-06
S010,13501.0,13530.984375,N2,0.06767708333333329,11.958291092545712,-23.26,18.06,41.32,1.96,25.532579638211285,562.5,569.9300130208334,0.42096609910683097,0.3121091305537215,0.032258047015004204,62.3908465175659,0.3845722578848915,63.095166217389426,0.23020833333333332,192,0.19692175000000003,0.0009391573550263055,-5.498738470794959e-07,36.681,0.020387904911165,2.2673617261724452e-05,104.83800000000001,0.08533854150773133,0.269999999999996,-9.750002644857907e-05
S010,13531.0,13560.984375,N2,0.057114583333333316,12.09200945301775,-24.06,19.08,43.14,1.8900000000000001,9.863734470945468,562.5,565.9912109375,0.43420885111762614,0.31598061649411346,0.045595976308831845,62.409190597005725,0.3942448815269646,63.095166217389426,0.2520833333333333,211,0.19649475,0.0009583748418546922,2.5686725717970376e-07,36.696000000000005,0.014966629547096332,-4.583334576642583e-06,105.01233333333333,0.0382695120893311,0.14999999999999147,5.2326403083332554e-05
S010,13561.0,13590.984375,N2,-0.05671875000000002,12.050136404140762,-23.62,18.44,42.06,1.69,8.949155467872659,562.5,567.4560546875,0.4330127018922193,0.31598061649411346,0.05581428468591172,62.40691839194486,0.3932706715896185,63.095166217389426,0.24895833333333334,201,0.19724199166666664,0.0009057802207290103,2.818800677843076e-07,36.70399999999999,0.017625738755202982,8.54166898374233e-06,105.136,0.06616141876753845,0.18000000000000682,9.659724842590735e-05
S010,13591.0,13620.984375,N2,-0.08685937499999996,10.837400959803874,-23.04,17.94,40.980000000000004,1.83,11.996930537782966,578.125,570.4345703125,0.4324096224614136,0.3388075878684275,0.06441510347391792,62.401595776535636,0.3942434212287921,63.095166217389426,0.24791666666666667,198,0.1973060416666667,0.0008727186105864215,-4.998180609315503e-07,36.70666666666666,0.014907119849998174,-7.708335424353038e-06,105.09633333333333,0.05546670673075751,0.1600000000000108,-1.3784725961568997e-05
S010,13621.0,13650.984375,N2,0.1016770833333333,11.214797920414117,-22.13,17.2,39.33,2.145,11.488579797019982,562.5,568.7174479166666,0.45111623709970794,0.36699204313203065,0.11987768650679834,62.42307870545069,0.413162518195129,63.095166217389426,0.28125,231,0.197754325,0.0010510025544093636,3.2634882984723136e-07,36.70166666666667,0.017716909687890744,7.256946413017357e-06,105.06099999999998,0.026751946969645186,0.060000000000002274,4.038195539875238e-05
S010,13651.0,13680.984375,N2,0.03290624999999999,11.794971522660733,-23.01,18.56,41.57,1.9049999999999998,10.299519805249314,562.5,569.3196614583334,0.43420885111762625,0.3754496725224597,0.09636964965693294,62.39471387723817,0.39750913312109887,63.095166217389426,0.24895833333333334,199,0.19794646666666665,0.0009331491300370452,3.146242172917266e-07,36.71,0.017320508075687788,8.95833576343753e-06,104.98966666666666,0.06390009563546752,0.1799999999999926,-7.468752026028402e-05
S010,13681.0,13710.984375,N2,-0.10818749999999995,12.106117670342424,-24.3,19.62,43.92,1.79,8.964302380924536,562.5,565.1692708333334,0.4422166387140533,0.38436088501635485,0.09636964965693294,62.405519065669715,0.40970332070820054,63.095166217389426,0.265625,208,0.19798917500000002,0.0008197963432310517,5.532770598082285e-09,36.72366666666667,0.012775845264489957,7.604168729429073e-06,104.9526666666667,0.04007770230717101,0.15000000000000568,-3.1736119720083865e-05
S010,13711.0,13740.984375,N2,-0.08295312499999992,12.057136807625712,-23.49,18.77,42.26,1.685,10.116548456656696,562.5,568.1396484375,0.4449258189574977,0.3736070773739289,0.06441510347391793,62.41478903436511,0.40868871083318703,63.095166217389426,0.2708333333333333,218,0.19840534999999998,0.0010585343062461438,1.7314805044163698e-07,36.73666666666667,0.012995725793079192,1.01388916392392e-05,104.99500000000002,0.06515366451704689,0.1700000000000017,9.968752704197083e-05
S010,13741.0,13770.984375,N2,0.07026041666666663,12.101853139554695,-23.97,18.62,42.59,1.86,10.504996589338518,562.5,567.8385416666666,0.4530842893589325,0.3886352099191334,0.10152910775842668,62.42344596879461,0.418152740409612,63.095166217389426,0.284375,234,0.19822394999999998,0.0009165494244720276,3.725521843945822e-08,36.75066666666667,0.013148721948878693,4.097223333665256e-06,105.12566666666666,0.03221628297754185,0.13000000000000966,2.3090284041415006e-05
S010,13771.0,13800.984375,N2,0.092015625,12.083805163910048,-23.59,18.97,42.56,1.975,11.190104161931956,562.5,567.2607421875,0.448589610767892,0.4068625190098002,0.07198059875565235,62.41249326507057,0.4101029596569112,63.095166217389426,0.27708333333333335,217,0.19885350833333335,0.0009708781763248644,1.058604887859401e-07,36.76,0.012382783747339171,8.402780057178745e-06,105.16366666666669,0.033013465266298246,0.09000000000000341,4.4270845342576356e-05
S010,13801.0,13830.984375,N2,-0.02238541666666666,12.048468377652295,-23.87,18.35,42.22,1.84,9.681591022949169,562.5,568.1477864583334,0.4496092053105675,0.39197129111142254,0.11110243021644486,62.415294056457405,0.41561341727404466,63.095166217389426,0.27708333333333335,222,0.19914162500000002,0.0009636274873492378,3.346066445873069e-07,36.76733333333333,0.012364824660661133,5.138890282901615e-06,105.0833333333333,0.03788872596902236,0.13000000000000966,-6.173612785810918e-05
S010,13831.0,13860.984375,N2,-0.038593749999999996,12.05587129185586,-24.13,18.35,42.480000000000004,1.86,11.090181758886683,562.5,565.7633463541666,0.44055357971218684,0.3984289895605266,0.06441510347391793,62.40134500156357,0.4060176463767988,63.095166217389426,0.2625,216,0.19932300000000003,0.0010198667560029626,3.842761459082438e-07,36.776666666666664,0.010749676997729848,9.44444700641325e-06,105.04066666666664,0.03275498265743361,0.09999999999999432,-3.673612107641994e-05
S010,13861.0,13890.984375,N2,-0.013197916666666698,12.439167232576128,-23.63,19.97,43.599999999999994,1.84,11.062773558065398,562.5,566.3492838541666,0.4545296714431547,0.37727176461405115,0.08507936450096985,62.430214447863904,0.41782052812688997,63.095166217389426,0.2864583333333333,225,0.19954714166666668,0.000972369299664773,6.952551799194843e-07,36.794000000000004,0.014966629547095637,-8.055557740764682e-06,105.04366666666665,0.024287628309260016,0.06999999999999318,-2.9340285736836414e-05
S010,13891.0,13920.984375,N2,-0.03659374999999998,12.13318332360175,-23.64,18.89,42.53,1.88,10.021466288730663,562.5,564.9495442708334,0.4568809849129202,0.39197129111142254,0.06441510347391793,62.43257992125712,0.41714031513124067,63.095166217389426,0.29583333333333334,231,0.19997398333333333,0.0009045026440290594,1.8499267171025276e-07,36.785333333333334,0.01431394036905512,8.263891130611409e-06,105.02499999999999,0.022912878474777586,0.06999999999999318,-7.604168729430825e-06
S010,13921.0,13950.984375,N2,0.06847916666666674,12.031952134472304,-23.16,18.48,41.64,1.855,10.53888151445289,562.5,568.9534505208334,0.44807531105272913,0.4068625190098002,0.10642856726723118,62.40895566676048,0.41878106968273004,63.095166217389426,0.278125,223,0.2004542666666667,0.0009640590207842851,-2.109570884757723e-07,36.80266666666667,0.014126413400278346,4.861112429771042e-07,105.15566666666668,0.055658682062091305,0.20000000000000284,5.315973664272448e-05
S010,13951.0,13980.984375,N2,-0.06427604166666664,12.186010075460208,-23.75,18.27,42.019999999999996,1.8050000000000002,11.602431984346595,562.5,565.1041666666666,0.44565319569518774,0.4083426338226542,0.07880950133074055,62.4023816235951,0.413391706738399,63.095166217389426,0.26979166666666665,220,0.20041154166666666,0.0008424996329953053,-2.693505504965686e-07,36.80200000000001,0.013266499161422174,7.222224181375837e-06,105.12699999999998,0.03236767935250786,0.12000000000000455,-5.288195878959589e-05
S010,13981.0,14010.984375,N2,0.1233854166666667,11.599418618575415,-22.32,18.54,40.86,1.915,11.219423916692913,578.125,570.21484375,0.46005358987356626,0.36407553922762903,0.12401959270615269,62.44081737108345,0.42149657689721864,63.095166217389426,0.2989583333333333,225,0.20016606666666667,0.0009083562419129531,2.0286073211282885e-07,36.8,0.012382783747338595,1.5972226554975379e-06,105.08899999999998,0.049081564767232036,0.14000000000000057,-7.774307664471475e-05
S010,14011.0,14040.984375,N2,0.014109375000000016,12.347043566448898,-23.84,18.74,42.58,1.915,9.69182932928484,562.5,566.7236328125,0.4587107820808469,0.3834918150654877,0.1496378730654628,62.430653498854106,0.42569007428874484,63.095166217389426,0.29791666666666666,229,0.19998469166666671,0.00098218355205662,-4.276071038430727e-07,36.80866666666667,0.013597385369580654,4.166667796946963e-06,105.07066666666661,0.002494438257850571,0.010000000000005116,1.9444449719098952e-06
S010,14041.0,14070.984375,N2,-0.08269791666666675,12.32988528993325,-24.43,18.83,43.26,1.835,10.926519664848517,562.5,567.8141276041666,0.45916118417779556,0.38608472506764047,0.11110243021644485,62.435222533023726,0.42361018063690437,63.095166217389426,0.2989583333333333,234,0.20029418333333332,0.0009945442254565106,4.446225164449096e-07,36.816333333333326,0.013287420951995685,-5.868057147368689e-06,105.10733333333334,0.06717803873952653,0.18000000000000682,0.00011076391893553076
S010,14071.0,14100.984375,N2,0.104203125,12.337461169745994,-23.68,19.36,43.04,1.8849999999999998,10.379824654084882,562.5,565.1611328125,0.46005358987356626,0.3936121892873181,0.15925921720229846,62.429672304732016,0.42275791785355776,63.095166217389426,0.29375,234,0.19979255,0.000882467958341834,-1.4700698432264156e-07,36.826,0.01019803902718484,3.888889943818014e-06,105.17100000000002,0.003000000000001535,0.010000000000005116,2.8125007629410987e-06
S010,14101.0,14130.984375,N2,-0.08906770833333336,12.310181402484783,-23.81,19.37,43.18,1.7850000000000001,11.072255116913782,562.5,566.89453125,0.46005358987356626,0.3886352099191334,0.1561249499599599,62.43131653288603,0.4275503525016627,63.095166217389426,0.29791666666666666,233,0.20047558333333335,0.0008898750996940839,4.5944413504886444e-07,36.82933333333334,0.008537498983243874,2.1527783617561015e-06,105.32833333333332,0.06419155361537514,0.18999999999999773,8.8298635063648e-05
S010,14131.0,14160.984375,N2,-0.01503645833333329,12.623674303281808,-25.36,20.11,45.47,1.88,9.94363582835125,562.5,566.1783854166666,0.4516126582100589,0.3763632627602693,0.10642856726723117,62.42317368068527,0.41644843338427173,63.095166217389426,0.2833333333333333,222,0.2009879583333333,0.0009665183943398138,4.5396474988192524e-07,36.833,0.006403124237434423,-1.0416669492418849e-07,105.36999999999998,0.033862466931204684,0.10000000000000853,4.708334610551431e-05
S010,14161.0,14190.984375,N2,-0.023161458333333305,12.260449648283618,-23.58,18.84,42.42,1.77,15.009219903511044,562.5,569.0592447916666,0.4763094159495717,0.3869395588747966,0.13928372696486196,62.472622937436604,0.4443253127334975,63.095166217389426,0.3,236,0.20143629166666663,0.0009916924287619992,-5.699415608565131e-08,36.84066666666668,0.012364824660660521,-2.1527783617572366e-06,105.26133333333334,0.1144474649008092,0.29999999999999716,6.8611129723072e-05
S010,14191.0,14220.984375,N2,0.02893229166666662,11.988887409093289,-23.36,17.98,41.34,1.79,10.301124000946773,562.5,569.2138671875,0.47761978573151903,0.3960402419753438,0.17677362623014656,62.4689554416808,0.4406692167955576,63.095166217389426,0.284375,222,0.20128683333333328,0.000978298125431204,4.067305790827268e-07,36.833999999999996,0.004898979485568862,-3.1250008477123318e-06,105.08133333333332,0.09135036337578985,0.36999999999999034,-0.00014958337391041983
S010,14221.0,14250.984375,N2,-0.04506250000000002,12.041468020113955,-23.0,18.63,41.629999999999995,1.755,10.438908038466627,562.5,566.357421875,0.4679843283671177,0.41339864235384227,0.1496378730654628,62.443045806239525,0.4334806107221693,63.095166217389426,0.315625,240,0.20155369999999995,0.0008895548662111763,8.284247038912444e-08,36.83900000000001,0.00943398113205676,1.8402782769860028e-06,104.87033333333335,0.10238760775710225,0.269999999999996,-0.00015135420772412417
S010,14251.0,14280.984375,N2,0.01809895833333335,12.02352300270005,-23.51,18.63,42.14,1.855,11.594320849279956,562.5,567.2281901041666,0.46837484987987976,0.40309135303165317,0.17116012950028855,62.44386671342331,0.4401343085427227,63.095166217389426,0.3177083333333333,241,0.20163909999999993,0.0008056619886776243,6.727475783277897e-08,36.844333333333346,0.014761059883655257,8.854169068514351e-06,105.105,0.10049046389251669,0.3499999999999943,0.00017406254721748728
S010,14281.0,14310.984375,N2,0.033937499999999995,12.22207234099822,-23.69,18.76,42.45,1.88,10.102948905211743,562.5,566.7236328125,0.4710349402438799,0.436561493377508,0.1496378730654628,62.44292821631818,0.4359940042406473,63.095166217389426,0.32395833333333335,240,0.20122279166666662,0.0009893951510546945,-8.05892796737405e-07,36.850000000000016,0.018439088914584418,2.9166674578638067e-06,105.25199999999998,0.03789459064299132,0.11999999999999034,1.88888940128304e-05
S010,14311.0,14340.984375,N2,-0.012031250000000042,12.02098237367438,-22.96,20.49,43.45,1.81,10.129188283575276,562.5,562.6220703125,0.4759755606908824,0.42229403058045806,0.16827350421923892,62.458071972939365,0.444498319972132,63.095166217389426,0.278125,226,0.20098792499999998,0.0009666034188719741,-2.026582580995687e-07,36.86666666666667,0.0179505493571136,1.7222226894049473e-05,105.28800000000001,0.10396794377755746,0.3100000000000023,-2.9236119041918527e-05
S010,14341.0,14370.984375,N2,-0.10315104166666665,11.7834120835755,-22.86,18.79,41.65,1.67,10.529177538825016,562.5,563.0208333333334,0.4710349402438799,0.4222940305804581,0.1356408400888169,62.44941603993917,0.43734380516908916,63.095166217389426,0.325,248,0.20067839166666665,0.0009496805102755434,-2.5963223188808286e-07,36.870000000000005,0.017320508075687788,1.0277780565804241e-05,105.53,0.07983315935958793,0.20000000000000284,0.0001348611476945394
S010,14371.0,14400.984375,N2,0.09078645833333336,12.399549515347992,-28.4,20.58,48.98,2.03,11.788054502714925,562.5,563.3870442708334,0.47920176501889283,0.42163187438807337,0.19249988726547926,62.46367314409154,0.449485648377863,63.095166217389426,0.2864583333333333,215,0.20116942499999996,0.0009745777261845191,4.4867742205875765e-07,36.87866666666667,0.01117536974282789,6.458335085269735e-06,105.59733333333334,0.07509697434354758,0.28000000000000114,-8.84722462218548e-05
S010,14401.0,14430.984375,N2,0.0067760416666666915,12.2676287215518,-23.41,18.89,42.3,1.8650000000000002,12.894074463338054,562.5,566.3981119791666,0.47530029798422063,0.43119338396478213,0.1899835519196333,62.44988929561914,0.4459001737088212,63.095166217389426,0.33541666666666664,244,0.20166044999999996,0.0010825523763310402,9.446265583296804e-07,36.885666666666665,0.012023125864581005,7.673613192712111e-06,105.38366666666667,0.04505428824084389,0.1700000000000017,-3.8437510426843375e-05
S010,14431.0,14460.984375,N2,0.012458333333333365,12.163158448189511,-23.13,18.94,42.07,1.995,8.76151583531039,562.5,563.3951822916666,0.47761978573151903,0.4336124401627436,0.17399263633843817,62.45803899224763,0.4525743874845941,63.095166217389426,0.2875,218,0.20188462499999996,0.0009931192951377914,-2.2517584233286684e-08,36.89466666666666,0.013349989596332953,3.2638897742745125e-06,105.30133333333336,0.09083807327082459,0.25,0.00012909725724209733
S010,14461.0,14490.984375,N2,0.0018593749999999594,12.416005716371695,-23.33,20.02,43.349999999999994,1.6549999999999998,12.516424197215901,562.5,564.697265625,0.4766407608782065,0.439992897669951,0.17677362623014656,62.45262129610316,0.441693610460707,63.095166217389426,0.3375,236,0.20282401666666666,0.0008874068588057858,1.848511786163138e-07,36.90333333333332,0.013984117975601158,8.333335593904494e-07,105.47566666666667,0.06868689022578224,0.20000000000000284,-3.065973053920661e-05
S010,14491.0,14520.984375,N2,-0.06204166666666664,12.128059665431397,-23.98,18.21,42.19,1.95,12.782836214567947,562.5,566.8375651041666,0.4782600118020414,0.4299636107826129,0.2021987428181051,62.456475291120036,0.45086310898627513,63.095166217389426,0.2864583333333333,230,0.20326170000000002,0.0009148169816963406,7.111108699845044e-07,36.905999999999985,0.014966629547095317,-2.6388896047338467e-06,105.58233333333334,0.07055415571664773,0.20000000000000284,-7.253474189853172e-05
S010,14521.0,14550.984375,N2,0.05958854166666663,12.33348159345603,-23.4,18.64,42.04,1.9449999999999998,9.74993313932181,562.5,566.1783854166666,0.4801213315981238,0.45061686115319255,0.2263462809256845,62.44962739781776,0.4521664963212147,63.095166217389426,0.26666666666666666,212,0.20327237499999998,0.0009266367326924838,1.1481188010304988e-07,36.90999999999999,0.012649110640673622,-9.722224859543803e-07,105.43599999999999,0.08924124606929168,0.29999999999999716,-3.7430565709241366e-05
S010,14551.0,14580.984375,N2,-0.027817708333333267,12.268162223910572,-24.68,18.54,43.22,1.835,24.665029522977616,562.5,568.8151041666666,0.483027920748089,0.4422166387140533,0.23632521950693286,62.46012560619488,0.44768023374992105,63.095166217389426,0.26458333333333334,217,0.2038808416666667,0.000978127113380751,3.686053517267127e-07,36.90999999999999,0.01154700538379227,-4.861112429772642e-06,105.19366666666666,0.07582802179200679,0.30000000000001137,-4.3576400709742376e-05
S010,14581.0,14610.984375,N2,-0.032885416666666605,12.300038723998826,-23.55,18.74,42.29,1.775,11.695666714178946,562.5,563.1429036458334,0.48491904930101487,0.437141470156465,0.2021987428181051,62.475259316285594,0.4510340299819817,63.095166217389426,0.28125,219,0.20421170833333335,0.000961263737620376,-2.4041347667466347e-07,36.91666666666666,0.011925695880000213,8.194446667331377e-06,105.24033333333334,0.1314149492595481,0.3200000000000074,0.00022281256044178081
S010,14611.0,14640.984375,N1,0.030776041666666625,12.065168270162777,-23.89,18.31,42.2,1.9449999999999998,9.238969285724373,562.5,560.1969401041666,0.48218141288373567,0.43999289766995103,0.20912350152216008,62.46369692144289,0.4496575431646173,63.095166217389426,0.27291666666666664,220,0.20429710000000004,0.0010057355964665897,3.3942240110199794e-07,36.91999999999999,0.013416407865000306,-2.291667288321686e-06,105.76533333333333,0.2615177920439719,0.6499999999999915,0.00045125012240942487
S010,14641.0,14670.984375,N2,0.018218750000000113,13.823899864081351,-70.59,82.75,153.34,1.63,18.97646864505803,562.5,573.2096354166666,0.5767626590986586,0.489468071538436,1.2579430789708077,62.555801217652956,0.4619531190003219,67.7716754994297,0.030208333333333334,21,0.204104975,0.0009893343845106188,-3.977468526874077e-07,36.87233333333334,0.04379370832538432,-7.295140867822428e-05,106.12066666666665,0.20155947564483986,0.6500000000000057,-0.00018041671560783392
S010,14671.0,14700.984375,N2,0.0005677083333333351,12.079448621548249,-24.23,20.22,44.45,2.01,21.577389439924097,562.5,570.5647786458334,0.24578919095210205,0.24393467007354422,0.4759755606908826,62.51838268901122,0.2845920185232994,62.91263784010332,0.0375,33,0.20442519166666667,0.0008638438834248699,1.397949597968102e-07,36.80333333333333,0.016599866130651387,4.166667796947727e-06,105.27366666666667,0.24125343981427957,0.8299999999999983,-0.00043093761689930995
S010,14701.0,14730.984375,N2,-0.041140625000000014,12.396995423161666,-24.13,19.91,44.04,1.9449999999999998,10.173124982367705,562.5,560.8235677083334,0.24944382578492946,0.26506476868347145,0.48880589869315433,62.50288907827165,0.2910158115999539,62.91263784010332,0.04895833333333333,39,0.20423307500000001,0.0009191210580630853,-9.189889645695017e-09,36.838,0.015362291495736567,1.5208337458858343e-05,104.81500000000001,0.1427526999160885,0.46999999999999886,0.00011739586517899856
S010,14731.0,14760.984375,N2,0.03859374999999998,12.90464771335484,-24.1,19.82,43.92,2.205,10.363375722799052,562.5,566.0725911458334,0.24684642942976148,0.2699987139887069,0.4999305507323548,62.47596066710481,0.2925555030606439,63.592452382338585,0.041666666666666664,37,0.20428643333333335,0.0009498802094065484,2.1138894623181145e-08,36.880333333333326,0.019576062480033764,2.2465283871875302e-05,105.24266666666666,0.052213237997869116,0.20000000000000284,4.11111222632183e-05
S010,14761.0,14790.984375,N2,-0.010281249999999945,12.940570216380154,-23.91,21.66,45.57,1.98,10.710324900036818,562.5,562.8336588541666,0.2304038573895845,0.25828082463667335,0.4994256684071103,62.466990361743775,0.2702439869352506,62.91263784010332,0.03229166666666667,28,0.2035179,0.000955755350495096,3.786290089596936e-07,36.909333333333315,0.015040685563571219,8.68055791030663e-06,105.32533333333335,0.07172788083366953,0.23000000000000398,-0.0001054861397260579
S010,14791.0,14820.984375,N2,-0.031421874999999995,12.851447920579018,-24.14,20.06,44.2,1.9849999999999999,10.683383478532008,562.5,566.9596354166666,0.2221950938302244,0.2599996661322642,0.4931815908944922,62.450888159977836,0.27783633660393103,62.91263784010332,0.034375,30,0.204201025,0.001015717073980253,4.5579157329415657e-07,36.92799999999999,0.011944315244781145,1.1319447515042868e-05,105.48700000000001,0.05067214882622019,0.23999999999999488,1.8923616244470226e-05
S010,14821.0,14850.984375,N2,0.06030729166666663,12.788250261443972,-24.23,19.78,44.010000000000005,2.205,12.195304154311675,562.5,566.7399088541666,0.2252289537275841,0.2732186624299299,0.486447180457447,62.444229907374975,0.2727659709249297,63.8200595424354,0.0375,31,0.20413698333333335,0.0010350664872632882,-5.703868734773438e-07,36.95066666666666,0.014126413400277675,-2.2916672883213642e-06,105.40166666666667,0.10736490218978563,0.3499999999999943,-0.00012100697726968725
S010,14851.0,14880.984375,N2,0.013848958333333269,14.255684276664393,-58.82,64.79,123.61000000000001,1.79,12.99304285303108,562.5,563.8509114583334,0.727419782471274,0.4796091706767316,1.6456368553609333,62.4570676052504,0.5478346646986338,68.92024376045111,0.020833333333333332,8,0.20361396666666665,0.0010256125725091778,-5.312453698039759e-07,36.960666666666675,0.012364824660659628,6.111112768854835e-06,105.4156666666667,0.02499110953030166,0.0799999999999983,4.895834661411644e-06
S010,14881.0,14910.984375,N2,-0.01341666666666664,11.431223117944214,-22.95,18.5,41.45,1.835,12.409988143359202,562.5,568.6848958333334,0.28408104465197176,0.29292696461272083,0.2667236267291586,62.53946263321806,0.2831905394884303,62.928530890209096,0.06145833333333333,58,0.20313359166666664,0.0009266705769926511,-3.964087446855335e-07,36.934666666666665,0.016069294390926733,-1.4375003899470435e-05,105.59766666666668,0.10190463951928685,0.3200000000000074,-1.5173615227217143e-05
S010,14911.0,14940.984375,W,-0.09827083333333339,18.620982881371113,-131.63,120.99,252.62,1.45,10.671347341157187,562.5,565.7958984375,0.7393221369756369,0.49886916391808916,1.8789885239840847,62.436931777425826,0.6228029820141205,67.09694478886502,0.042708333333333334,29,0.2000597,0.002516316079112475,-3.809474557691659e-06,36.91466666666666,0.015216949614017846,-5.069445819620179e-06,105.47066666666667,0.11983136298797313,0.4099999999999966,0.0001632639331770641
S010,14941.0,14970.984375,N1,0.07288020833333334,10.21864348498126,-20.12,20.37,40.49,1.58,11.530871965459813,562.5,569.0592447916666,0.33306629928922893,0.458257569495584,0.07905694150420949,62.3751894298975,0.3327815866321499,63.25345840347388,0.12708333333333333,115,0.19764759999999998,0.0009496615923580388,-2.6738982947857883e-07,36.857,0.021470910553582696,-3.0451397149356848e-05,105.45433333333334,0.08341396099508037,0.3299999999999983,-0.00010260419449983381
S010,14971.0,15000.984375,N2,0.029906250000000044,11.493083893674676,-21.55,18.03,39.58,1.565,9.91731954610587,562.5,566.845703125,0.2964617006133432,0.4336124401627436,0.07198059875565235,62.35718186170545,0.2985999545512793,63.25345840347388,0.09583333333333334,90,0.1971992916666667,0.0009047727928033798,1.6567170292743735e-07,36.86266666666667,0.019482185594935125,2.5138895708249168e-05,105.33833333333334,0.1389504308097761,0.4899999999999949,-0.00020656255603368064
S010,15001.0,15030.984375,N2,-0.014401041666666685,11.927700290692345,-22.94,18.69,41.63,1.615,13.798184113961035,562.5,564.8030598958334,0.2744233221178955,0.41620286686769575,0.1656708531915684,62.35295274017546,0.2812049930407652,63.54525946126902,0.07916666666666666,76,0.19650542500000004,0.0008853816941720703,6.254884509246044e-08,36.90533333333333,0.01687865186822926,2.3263895199623865e-05,105.41099999999999,0.17649079296099213,0.5499999999999972,0.00025628479174392033
S010,15031.0,15060.984375,N2,-0.014625000000000036,11.660196801199728,-22.64,19.19,41.83,1.78,13.510918554250077,562.5,564.8763020833334,0.2523307153926282,0.38522517765587444,0.20728643209471176,62.35431640465144,0.25750542119868763,63.54525946126902,0.103125,94,0.19637732500000002,0.0009378824389948912,-3.8113096276339175e-07,36.946000000000005,0.015832456116050875,1.0416669492369703e-05,105.74266666666666,0.14699055147260973,0.4200000000000017,0.00019506949736042964
S010,15061.0,15090.984375,N2,0.008385416666666694,11.791289042719376,-23.17,18.86,42.03,1.6749999999999998,11.069596073500694,562.5,567.7327473958334,0.25464435984329203,0.3660254217605657,0.22219509383022437,62.36082431113026,0.2651406601723372,63.54525946126902,0.065625,62,0.19632395000000002,0.0008462252344972967,-1.779167149296651e-07,36.97166666666667,0.018272626764887546,2.378472867424293e-05,105.41200000000002,0.2041796594505285,0.6400000000000006,-0.0003593750974867369
S010,15091.0,15120.984375,N2,0.0028489583333333106,12.17727523051386,-23.27,19.61,42.879999999999995,1.8450000000000002,12.755866764136359,562.5,570.0927734375,0.22100769453045446,0.3318963165365888,0.21578094200034337,62.35257120034954,0.23181825928893204,63.54525946126902,0.09479166666666666,85,0.1964307,0.0008257786991682486,4.058725059332981e-08,36.99433333333334,0.012827920936596017,1.2465281159202011e-05,104.94099999999999,0.1043503713457678,0.29000000000000625,-0.00017593754772611233
S010,15121.0,15150.984375,N2,-0.03266666666666666,12.00106909618426,-22.59,19.34,41.93,1.7149999999999999,24.700810349127917,562.5,571.1669921875,0.24816820222829156,0.32226244211391164,0.2263462809256845,62.371433449462224,0.2584365672727533,63.54525946126902,0.06458333333333334,61,0.196334625,0.0008812534166600463,-2.0043429916295075e-07,37.018333333333324,0.018988300491501034,2.51736179398913e-05,104.80900000000001,0.08514105942493379,0.269999999999996,8.32986337073157e-05
S010,15151.0,15180.984375,N2,0.11682812500000002,11.783293765771054,-22.19,18.79,40.980000000000004,2.005,11.118990700289089,562.5,569.091796875,0.23090251670829018,0.3041220715025465,0.19249988726547926,62.361232600703396,0.2406626704882915,63.54525946126902,0.08645833333333333,76,0.1955019833333333,0.0010300409861047088,-7.753061998986024e-07,37.047333333333334,0.008537498983242728,-1.388889265648964e-06,104.85333333333331,0.048396510434352495,0.1700000000000017,-5.347223672752465e-06
S010,15181.0,15210.984375,N2,-0.027817708333333288,11.777255546448547,-22.68,19.01,41.69,1.73,10.40087456490158,562.5,566.2272135416666,0.25412397182390245,0.3146988612370386,0.19741988090108856,62.36976456067182,0.2581381665516774,63.54525946126902,0.06666666666666667,63,0.195694125,0.0009485144486906913,-1.2259573638122236e-07,37.05,0.019148542155126666,1.3055559097102785e-05,104.81166666666667,0.05854248220072413,0.1599999999999966,-7.746529879158428e-05
S010,15211.0,15240.984375,N2,-0.029755208333333345,11.995169804466867,-22.9,19.55,42.45,1.65,10.959201053161951,562.5,565.5354817708334,0.2416823809546093,0.3013838885273878,0.23239907830544898,62.36823010358429,0.24731642288401676,63.54525946126902,0.10416666666666667,94,0.1951924,0.000997755651449796,-8.590041392697889e-07,37.05933333333334,0.012364824660662311,5.416668136032858e-06,104.97266666666664,0.08310368356590365,0.23999999999999488,0.00014506948379705597
S010,15241.0,15270.984375,N1,-0.18649479166666663,11.102433557135026,-23.04,20.69,43.730000000000004,1.225,14.194761355238882,562.5,561.1002604166666,0.295032660621385,0.33071891388307384,0.22124323200571208,62.38148043115792,0.28842829910921636,63.25345840347388,0.09479166666666666,86,0.1943811,0.0008389218914773919,-9.285028560391896e-08,37.072,0.017397317800934245,-1.2430558927560364e-05,105.39766666666665,0.3557497559927359,0.9100000000000108,0.0006022571078171471
S010,15271.0,15300.984375,N2,0.152328125,9.96052362488626,-20.04,15.77,35.81,1.835,10.69592310163521,578.125,572.0703125,0.33306629928922893,0.42029668753816696,0.17116012950028858,62.38202872489737,0.3262675273631441,63.25345840347388,0.12708333333333333,120,0.19407157499999997,0.0008898933893309917,-4.883822939405094e-07,36.995333333333335,0.02124983660067926,-3.0416674917718187e-05,105.61633333333336,0.19196324879749418,0.5300000000000011,-0.00030322924892286276
S010,15301.0,15330.984375,N2,-0.002348958333333284,11.575085742712439,-41.48,50.97,92.44999999999999,1.565,13.622023507180163,562.5,569.5393880208334,0.3686955585989009,0.3517673014579383,0.5759945731201717,62.355280644939874,0.36115650917348313,65.12296062065974,0.08125,73,0.1934739666666666,0.0009821617308547216,-1.6694188556365942e-07,36.96200000000001,0.012220201853214383,-8.333335593893976e-06,105.21400000000001,0.29845826062170566,0.7999999999999972,-0.0005024306918486057
S010,15331.0,15360.984375,N2,-0.04906770833333328,10.225068042540462,-20.16,16.33,36.489999999999995,1.9249999999999998,14.202184750683212,578.125,574.6175130208334,0.22143932185564713,0.12401959270615269,0.2263462809256845,62.35186132870928,0.22261067376458826,63.48228099241551,0.04791666666666667,46,0.19297240833333326,0.0009252911478361134,-2.9731106155356164e-07,36.93933333333333,0.015260697523013754,-1.6805560114356225e-05,104.97166666666666,0.17337980146359516,0.5499999999999972,-5.809029353577881e-05
S010,15361.0,15390.984375,N1,0.1435208333333333,11.565214226452213,-23.67,38.94,62.61,2.0,13.940215902476325,562.5,566.5771484375,0.21857880205622257,0.17468970506459602,0.14745747386016828,62.35695345342697,0.2139454926088389,63.48228099241551,0.04375,41,0.19230009166666662,0.0012404540767788246,-9.229561965484429e-07,36.936,0.015620499351814204,-4.37500118679539e-06,104.63133333333333,0.044176414018747966,0.1600000000000108,-1.0625002882217452e-05
S010,15391.0,15420.984375,N2,-0.10843750000000002,11.29951788500703,-23.0,25.24,48.239999999999995,1.7349999999999999,13.610498626491793,578.125,578.759765625,0.18679264722026817,0.1496378730654628,0.06454972243679027,62.34843872465692,0.18624875220904222,63.48228099241551,0.046875,43,0.19132897499999996,0.001035049817339725,3.091309432321363e-07,36.926666666666655,0.011642832797716395,1.5972226554966737e-06,104.57033333333335,0.12322021839869468,0.3299999999999983,-0.00019600699761474326
S010,15421.0,15450.984375,N1,0.055802083333333335,11.481316198429909,-22.75,18.68,41.43,1.885,14.17104017777284,578.125,572.8515625,0.2807402788462437,0.15988480553719503,0.551464865847217,62.36242589440865,0.2596534184668028,64.50581369148055,0.059375,49,0.191222225,0.0011408341134341133,-9.417556808148009e-07,36.92999999999999,0.012649110640674747,3.194445310993866e-06,104.39933333333335,0.08725187040338388,0.29999999999999716,-0.00012208336645056734
S010,15451.0,15480.984375,N1,-0.004520833333333248,13.551779410360322,-42.02,91.67,133.69,1.61,17.160838091326358,562.5,565.6087239583334,0.48693766534388727,0.10642856726723118,0.38522517765587433,62.518826520568425,0.4660083952069705,63.15853069855251,0.011458333333333333,11,0.19088065833333337,0.0010579651025737521,9.895920653190296e-07,36.93866666666666,0.015216949614018685,-1.6041671018249582e-05,104.569,0.3193362908700904,0.9200000000000017,0.0005527432054967469
S010,15481.0,15510.984375,W,0.019447916666666728,40.18623142771502,-216.08,173.45,389.53,1.2349999999999999,9.956225774713856,562.5,564.2985026041666,7.622067329357822,5.564426944638794,26.714052441987604,63.13060457791236,3.2361395150093917,90.1443287178955,0.06770833333333333,32,0.1747533,0.016642793005582534,-2.73361918772222e-05,36.87066666666667,0.06397568982737778,-9.909724910407063e-05,105.46133333333333,0.4209491919724064,1.3999999999999915,0.0007075696363849916
S010,15511.0,15540.984375,W,-0.08276562499999998,22.912936441271228,-130.78,179.65,310.43,0.88,56.37170317812845,531.25,563.1184895833334,5.998079029150129,5.861390764375665,21.619889183109393,62.96764534873494,2.7309212552917974,98.52918349402881,0.027083333333333334,14,0.17991905,0.013500916180547403,1.894173560702463e-05,36.782666666666664,0.03032417444145105,2.270833949336387e-05,107.097,0.4631785113035077,1.3399999999999892,0.00038531260452273234
S010,15541.0,15570.984375,W,0.04396354166666661,12.722908057774664,-28.0,20.51,48.510000000000005,2.385,10.902491050778162,578.125,574.5198567708334,0.2795007329547138,0.46679685683984157,0.232279988495685,62.08119752842594,0.2498268131378828,63.00793600809346,0.08854166666666667,52,0.19020818333333336,0.001291557780249197,1.4397204426325036e-06,36.77866666666667,0.014313940369054977,-9.930558249390846e-06,105.56066666666668,0.4279792310641055,1.710000000000008,-0.0007485418697216456
S010,15571.0,15600.984375,N1,0.06849999999999999,13.811759042720325,-44.92,32.11,77.03,2.775,28.675244578292464,578.125,572.8190104166666,0.18483053424390922,0.45210613421764395,0.21529009821375641,62.00355525840299,0.1930293194509959,63.00793600809346,0.07916666666666666,62,0.19214003333333327,0.0011088038670367003,7.827024692660764e-07,36.778,0.013266499161420532,8.333335593897334e-07,103.53533333333331,0.6055671354652232,1.8200000000000074,-0.0007133335268374377
S010,15601.0,15630.984375,N2,-0.10735937499999997,14.393644877891408,-30.33,21.95,52.28,2.41,13.195943189572624,578.125,573.0875651041666,0.07198059875565237,0.4759755606908825,0.4618050334165803,62.05869497427658,0.1634362965600058,63.150613615387776,0.12604166666666666,99,0.19352729999999996,0.0009696670356364551,6.970396856118912e-07,36.788000000000004,0.014922019523732913,1.0208336102521695e-05,104.55033333333334,0.2235096319077901,0.9000000000000057,9.975697150525588e-05
S010,15631.0,15660.984375,W,0.12314062499999998,15.199045230465122,-32.17,24.11,56.28,2.755,9.892965202294423,562.5,569.5719401041666,0.032258047015004204,0.48543790189603264,0.35398126274564307,62.21278854777885,0.1257621141524757,63.28506932918696,0.0010416666666666667,1,0.19462665,0.0013372179867795202,-1.197387477589908e-07,36.81133333333334,0.01687865186822969,1.1458336441606479e-05,104.57466666666666,0.0982423307722055,0.36999999999999034,0.00016631948956149242
S010,15661.0,15690.984375,N1,0.09315104166666645,28.8587794324596,-129.66,175.36,305.02,-0.14500000000000002,19.61913110566023,578.125,563.2080078125,2.2884444676673326,2.615780560885858,7.73561325665892,62.49612498474118,1.9727274414568714,80.95677859203639,0.04375,25,0.19011215833333334,0.0032475379032836393,2.0107655194133913e-06,36.80233333333333,0.020925794820958694,-2.434028438050147e-05,105.36166666666668,0.8339387800605579,2.6200000000000045,0.0013271878600227514
S010,15691.0,15720.984375,N1,-0.19433333333333336,13.831394805437697,-29.2,20.97,50.17,2.27,29.307249139800447,593.75,598.388671875,0.0,0.03225804701500421,0.3108009366495253,62.369954288775745,0.0927021180513677,62.617888817813075,0.0010416666666666667,1,0.19170245833333333,0.001170972429904825,1.0418885204775663e-06,36.70399999999999,0.03392147795522354,-5.4583348140015645e-05,106.517,0.6440556394184181,2.049999999999997,-0.0011055905776884178
S010,15721.0,15750.984375,N1,0.008895833333333318,14.874356261616253,-29.64,24.39,54.03,2.575,12.212756361451184,578.125,583.3902994791666,0.0,0.1529193630552463,0.14282613750835504,62.40090719938062,0.05312589721135188,62.617888817813075,0.022916666666666665,21,0.19337793333333328,0.000977771179207525,2.5678218771218037e-07,36.643333333333324,0.013249737942899152,-1.61111154815284e-05,103.644,1.0675754462019686,3.3899999999999864,-0.0018823616217343794
S010,15751.0,15780.984375,N2,-0.019187499999999986,14.846816345258796,-33.11,22.21,55.32,2.41,10.757684799688578,578.125,571.3134765625,0.0,0.17677362623014653,0.12401959270615269,62.40425361655149,0.05367085913428294,62.617888817813075,0.03229166666666667,30,0.1933672333333333,0.0009418926755327325,-1.2529256871000478e-07,36.63666666666666,0.013984117975601043,-2.777778531300342e-07,101.98100000000001,0.5612269297411402,1.7999999999999972,0.0009304516412900507
S010,15781.0,15810.984375,N2,0.07137500000000001,15.461610264249376,-30.99,22.72,53.709999999999994,2.74,9.680534100672189,578.125,578.0843098958334,0.0,0.23239907830544904,0.08507936450096985,62.4121292010345,0.05667386267429959,62.617888817813075,0.057291666666666664,53,0.194381225,0.0012779288612340652,1.1328807326607863e-06,36.63,0.012649110640673247,2.0833338984746925e-06,103.98366666666668,0.24472410769862743,0.8700000000000045,0.0003967709409643421
S010,15811.0,15840.984375,N2,-0.06263541666666667,15.985292466579365,-31.79,24.53,56.32,2.5199999999999996,11.216436640519133,578.125,575.7975260416666,0.0,0.26506476868347145,0.07880950133074056,62.41648811425929,0.06234165966368904,62.617888817813075,0.07604166666666666,68,0.19533116666666667,0.0010458420079321555,2.721433029902631e-07,36.63699999999999,0.011298967504450514,7.39583533958077e-06,104.12733333333335,0.07474103439358032,0.269999999999996,-8.840280175857217e-05
S010,15841.0,15870.984375,N1,0.03551041666666658,15.3189973035218,-44.95,32.26,77.21000000000001,2.0549999999999997,11.90976758576933,578.125,569.5556640625,0.2690566725720727,0.9045116229444853,0.5150470245521277,62.50087228853352,0.274477999888695,64.47480127925948,0.20833333333333334,29,0.19491487499999996,0.0011335006878581966,-1.0452107870037957e-07,36.635666666666665,0.013085190950925805,-8.993057995078233e-06,104.14699999999999,0.19839606850943245,0.6499999999999915,0.0003490625946892863
S010,15871.0,15900.984375,N1,0.007520833333333398,13.032153381939583,-36.16,31.96,68.12,2.575,13.438706356181106,578.125,575.7405598958334,0.0,0.3353843152100123,0.05581428468591172,62.52310290038162,0.07997108826875148,62.55397669213365,0.0,0,0.19602505,0.0009185463774355684,1.3621748486802474e-07,36.61666666666667,0.01299572579307907,-3.6111120906885472e-06,104.74833333333332,0.1261502631344433,0.36000000000001364,-0.00014024309359893225
S010,15901.0,15930.984375,N1,0.39416145833333344,25.703477389681105,-197.99,131.11,329.1,2.5199999999999996,14.264165429679839,578.125,581.54296875,2.4321201313531637,1.5636440256301587,17.94308853007932,62.72639126616618,0.9041830882989437,68.96375859826666,0.10729166666666666,29,0.19133958333333337,0.010252134314037032,-1.3724431240351354e-05,36.61133333333334,0.01927577639306865,-1.5277781922140937e-05,103.867,0.43153331273495044,1.2999999999999972,-0.0007725349317857357
S010,15931.0,15960.984375,N1,-0.41522916666666665,10.7773395105958,-22.79,17.82,40.61,1.12,26.39178976767614,578.125,581.7138671875,0.045595976308831845,0.16532992583014122,0.49817265908908426,63.683799133537406,0.25572365147831283,64.24951361683604,0.45625,172,0.16386644166666667,0.0019515272557488327,-3.0822527892395874e-06,36.60266666666668,0.01896195020443703,2.8125007629396283e-05,102.91633333333333,0.16144107972329277,0.46999999999999886,-0.0002701042399371333
S010,15961.0,15990.984375,N2,-0.0930989583333333,11.175819690789602,-22.69,15.89,38.58,2.02,11.388159214205162,578.125,574.31640625,0.11110243021644486,0.36210317120569685,0.40155405579102577,63.8825257067327,0.23934144779736405,64.24951361683604,0.11979166666666667,95,0.15940511666666662,0.0012583159988872222,-1.6320837760643891e-06,36.66266666666665,0.017499206331208484,2.784722977626632e-05,103.11433333333333,0.28854443139469815,0.730000000000004,0.0005061459706342178
S010,15991.0,16020.984375,N2,0.029354166666666688,11.562855521542504,-24.51,18.08,42.59,2.0549999999999997,9.7822632513621,578.125,571.8017578125,0.1496378730654628,0.4076045792867832,0.4182664600433822,63.87903805079106,0.27148856130371896,64.24951361683604,0.159375,115,0.15735559999999998,0.0011371689804070403,-1.1988106550593083e-06,36.74033333333333,0.021367160680717454,3.2673619974399886e-05,103.60433333333336,0.20924759390625128,0.6499999999999915,0.0003197570311840899
S010,16021.0,16050.984375,N2,0.0811510416666666,11.5491206681008,-23.44,16.63,40.07,1.81,11.664370356229764,578.125,580.078125,0.16532992583014122,0.48385276506793773,0.4068625190098002,63.932886951505665,0.28782120490710367,64.24951361683604,0.284375,182,0.15556261666666665,0.0011076599070663476,-1.0957077625075342e-06,36.792666666666676,0.01768866554856181,2.5000006781685976e-05,104.06199999999998,0.18278220190525532,0.5499999999999972,-0.00026381951601006984
S010,16051.0,16080.984375,N1,-0.09264583333333337,18.05002983260414,-76.44,135.38,211.82,1.57,25.094341713957302,562.5,573.3723958333334,3.6388049814064414,1.6768646337734006,10.794862581789646,63.58859764438719,0.8226226070125113,70.32069396699666,0.011458333333333333,7,0.15447409166666665,0.0012944737476147977,8.339500960151112e-07,36.827333333333335,0.012364824660661135,1.1180558588475115e-05,103.67166666666667,0.07085587876496821,0.20000000000000284,5.822918246234514e-05
S010,16081.0,16110.984375,N2,-0.0027656250000000306,12.41529026238352,-25.86,20.7,46.56,1.725,15.451080042958708,578.125,582.0556640625,0.2943625410196677,0.09636964965693297,0.10642856726723118,62.57856185660409,0.28257027298496906,63.45076831686122,0.09583333333333334,86,0.15887135833333332,0.0014070723790660308,1.9284000456814262e-06,36.817666666666675,0.01430229196861626,-1.2534725622483944e-05,103.87866666666666,0.0755748341417684,0.28999999999999204,-4.1875011359327285e-05
S010,16111.0,16140.984375,N2,0.019406250000000017,13.071418652348372,-25.86,19.54,45.4,2.13,11.231998947495812,578.125,573.8037109375,0.2929269646127209,0.03225804701500421,0.12801909579781015,62.579082095678544,0.28163344200862545,63.45076831686122,0.09479166666666666,84,0.16127301666666666,0.0009999307974666188,4.7517374001023883e-07,36.81466666666667,0.012036980056844764,1.062500288221655e-05,103.94733333333332,0.0905513973142092,0.21000000000000796,0.0001471528176955368
S010,16141.0,16170.984375,N2,0.07124479166666665,13.16797805293497,-26.29,20.63,46.92,2.44,9.927998519613187,578.125,574.9186197916666,0.274808566576606,0.0,0.2068462551362458,62.564401173570424,0.26590560832318905,63.45076831686122,0.08229166666666667,74,0.16177454166666666,0.0009320863863383198,4.6548341620101507e-07,36.822,0.01194431524477825,5.138890282902677e-06,103.94366666666664,0.2651098304895964,0.8200000000000074,0.0003612848202270019
S010,16171.0,16200.984375,N2,0.009171874999999993,13.168190531211655,-27.01,19.45,46.46,2.175,12.331072793460567,578.125,576.4078776041666,0.2870750936166354,0.0,0.25654623798103576,62.56969491324481,0.27941032574259717,63.45076831686122,0.090625,77,0.16227611666666666,0.001027039338611507,6.508699682264474e-07,36.840333333333334,0.014019827229875046,8.020835509125433e-06,104.15066666666667,0.159330543908635,0.3999999999999915,-0.0002777084086665559
S010,16201.0,16230.984375,N2,0.027531249999999993,12.859226464272261,-25.48,19.08,44.56,2.26,11.65721135497412,578.125,574.6988932291666,0.254795584597841,0.0,0.2957874817753449,62.5469760884649,0.24738402467692158,63.45076831686122,0.06979166666666667,62,0.16232944166666663,0.0009423152497601643,8.523938944210887e-08,36.852000000000004,0.018330302779821832,4.444445650076653e-06,104.171,0.09689685237405632,0.3399999999999892,2.579861810943542e-05
S010,16231.0,16260.984375,N2,-0.022588541666666663,13.074325325864251,-27.22,19.67,46.89,2.115,11.00221892816699,578.125,578.0598958333334,0.2617030727062426,0.0,0.31340840191176894,62.54956133670974,0.25674550015693004,63.45076831686122,0.07395833333333333,65,0.16291639166666663,0.0009439278070544171,1.7894991833493934e-07,36.84600000000001,0.014282856857084119,-2.5694451414508084e-06,104.12966666666665,0.060193207442555914,0.18000000000000682,-2.48263956234828e-05
S010,16261.0,16290.984375,N2,-0.022479166666666574,13.250060180664564,-28.26,20.21,48.47,2.26,11.933779773139815,578.125,572.9329427083334,0.26339134382131846,0.0,0.4261919050504778,62.53725021013564,0.25747716058337733,63.45076831686122,0.075,68,0.16342864999999998,0.0009556481452396619,3.802396864799509e-07,36.85500000000001,0.01910497317454123,7.881946582558465e-06,103.87766666666667,0.08313376102536393,0.29999999999999716,-9.364585873639782e-05
S010,16291.0,16320.984375,N2,-0.12409895833333333,13.05996371392192,-36.15,22.8,58.95,2.1550000000000002,15.753104329505002,578.125,575.8870442708334,0.3479088696731117,0.04564354645876384,0.8593213367083482,62.51216648993111,0.33677252728466694,64.31174076325411,0.13125,108,0.1642185833333333,0.0012504949925485104,1.2370385300126263e-06,36.86833333333333,0.014624940645652383,1.2465281159201467e-05,104.07633333333334,0.1423021043023904,0.3999999999999915,0.00023878478699673785
S010,16321.0,16350.984375,N2,0.10016666666666667,13.047482662429136,-33.3,23.2,56.5,2.21,24.020590953811652,578.125,579.0934244791666,0.4046120827409878,0.0,0.4685925661548159,62.52270764569822,0.39341917918328223,63.45076831686122,0.20625,158,0.16625747500000002,0.001036684860203423,6.218745176525915e-07,36.873666666666665,0.02272785857830607,-1.1145836356835444e-05,104.0753333333333,0.08476372389701221,0.3999999999999915,-0.00011277780837071643
S010,16351.0,16380.984375,N2,-0.021395833333333412,12.830417529805853,-25.4,20.71,46.11,2.145,14.464445520662313,578.125,574.9430338541666,0.32953401179628716,0.0,0.24578919095210208,62.49949193727552,0.31945148160544845,63.34824385884742,0.12395833333333334,110,0.16637490000000002,0.0009839547703019628,1.384414438046449e-07,36.88266666666666,0.013148721948877926,4.513890113360333e-06,103.761,0.1382111910567791,0.4200000000000017,-0.00015364587501244471
S010,16381.0,16410.984375,N2,0.05497395833333334,13.610893174959356,-35.39,25.79,61.18,2.64,22.90621432442841,578.125,573.7630208333334,0.3421680772011842,0.032258047015004204,0.2868576761895851,62.508990082050644,0.33246642251014913,63.45076831686122,0.13541666666666666,113,0.166129375,0.00098389686165522,-3.644512707387312e-07,36.88533333333333,0.015216949614017844,7.986113277482949e-06,103.96299999999998,0.15231874474272664,0.6200000000000045,0.00023885423146002317
S010,16411.0,16440.984375,N2,-0.06803645833333333,13.118247181436022,-26.7,19.7,46.4,2.1950000000000003,11.080135773348278,578.125,580.0944010416666,0.3283415290855274,0.0,0.254795584597841,62.498028596886726,0.3187943476026527,63.34824385884742,0.12291666666666666,102,0.16686591666666667,0.0009668223085908147,7.84975473354887e-07,36.90133333333332,0.009910712498210367,9.027780226718094e-07,104.07966666666668,0.12525928663731278,0.3999999999999915,-3.614584313852164e-05
S010,16441.0,16470.984375,N2,0.12818750000000004,13.910716950964238,-28.14,40.33,68.47,2.425,15.459455272886922,562.5,570.068359375,0.3418682713130243,0.11131708339493784,0.4632302324588594,62.489477296259885,0.3363687067611934,63.608175575157006,0.13333333333333333,108,0.16665242500000002,0.0010740419658351267,2.1291954560534546e-07,36.90533333333331,0.011175369742825856,2.291667288321242e-06,103.96700000000001,0.058660037504248,0.20000000000000284,1.8854171781187076e-05
S010,16471.0,16500.984375,N1,-0.09125000000000001,13.72069204173633,-30.12,19.96,50.08,2.34,14.594516553403366,578.125,583.6018880208334,0.6203122813461692,0.4060683354505194,2.441481790498003,62.40884356653678,0.5446662778323912,70.41306696913578,0.08020833333333334,71,0.1675383166666667,0.0015270409292884738,8.401504015164937e-07,36.911333333333324,0.01707499796648792,8.611113447026009e-06,103.89833333333334,0.20337294696088717,0.5700000000000074,-0.00029392369084301525
S010,16501.0,16530.984375,N2,-0.022046874999999962,19.125590694251844,-111.55,146.89,258.44,1.855,10.649678485814968,578.125,580.8186848958334,0.35293904887702954,0.3095625834230545,0.5827340671829266,62.541997565994386,0.2933265333239092,63.72597586541927,0.0125,7,0.17250134166666667,0.0011574164656382613,1.1464302155029918e-06,36.92733333333332,0.01842703328144783,-2.111111683786949e-05,103.73133333333332,0.11415583890259622,0.35999999999999943,-0.0001581944873574448
S010,16531.0,16560.984375,N2,0.051208333333333404,13.198268297012701,-28.59,20.95,49.54,2.585,16.63598574511175,578.125,580.8756510416666,0.1529193630552463,0.3799671038392666,0.2494438257849294,62.592277145989264,0.17549932479154987,62.81719509815764,0.15416666666666667,116,0.17457189166666665,0.0010789714762667367,1.2166281512120635e-06,36.897999999999996,0.014236104336040977,-1.388889265649121e-05,103.61600000000001,0.16469365500831976,0.46999999999999886,0.00014069448261026297
S010,16561.0,16590.984375,N2,-0.010031250000000054,13.858643301769842,-35.33,22.36,57.69,2.365,13.09221158414246,578.125,584.3424479166666,0.13188915142607024,0.41758232721225164,0.3172537731804339,62.601963015109895,0.16601201205159702,62.81719509815764,0.19375,142,0.17646080833333333,0.0010518895006592685,1.0632669984990697e-06,36.89733333333332,0.013148721948876303,8.263891130611997e-06,102.953,0.41519593768083574,1.1700000000000017,-0.000737187699974966
S010,16591.0,16620.984375,N1,0.040838541666666665,13.67607867755829,-27.49,20.74,48.23,2.645,14.327426547174277,578.125,579.2887369791666,0.1462753717308556,0.4305801964275128,0.27480856657660596,62.6080511468044,0.17276650656961703,62.81719509815764,0.21354166666666666,159,0.17835025000000002,0.0009095701388568142,4.3311600290690384e-07,36.90466666666665,0.01024152766382336,2.638889604733205e-06,102.38699999999999,0.09578274026845088,0.23999999999999488,0.00015690976478672158
S010,16621.0,16650.984375,N1,-0.05534374999999991,24.160444859715145,-123.44,161.06,284.5,1.065,11.690130253988816,578.125,574.755859375,2.4402919818327518,1.403213929376851,8.608352492718272,62.55611625992362,1.1497398872146969,73.30757123244501,0.04791666666666667,22,0.17189294166666666,0.002260656697716523,2.998509710967268e-06,36.86333333333334,0.0179505493571132,-9.861113786108076e-06,101.97433333333335,0.38526772797915854,1.0300000000000011,-0.0005290626435174291
S010,16651.0,16680.984375,N1,0.041697916666666696,13.402841518234569,-32.36,22.61,54.97,2.67,10.604934070051888,578.125,582.1044921875,0.4359782562589052,0.0,0.07198059875565238,62.29574151448694,0.42200611396918486,63.103090257134,0.2552083333333333,187,0.17379291666666666,0.0008716851169175486,-3.3212812828996636e-07,36.85200000000001,0.014696938456696146,5.000001356336179e-06,101.62666666666668,0.12429355932182937,0.4300000000000068,-0.000122430588766978
S010,16681.0,16710.984375,W,-0.09867708333333335,48.47200829709925,-225.49,247.85,473.34000000000003,1.4849999999999999,13.077179111277648,578.125,575.8951822916666,10.695303356562118,11.107362540412852,18.097338536629497,63.11221051731024,5.60597971979158,125.73782247199925,0.058333333333333334,34,0.16960879999999998,0.010532781310113046,-3.5944441174164913e-06,36.83366666666667,0.0250975873121072,-1.1145836356835519e-05,102.333,0.7347296554969498,1.8499999999999943,0.0012251739434608136
S010,16711.0,16740.984375,W,0.0806197916666666,9.987986235620353,-26.17,37.18,63.35,1.975,19.44976593798546,578.125,568.5302734375,2.946605273681714,2.9061596461462487,12.522637661174087,62.49880473064187,1.0672350136827948,74.31016081263719,0.04375,21,0.1703879333333333,0.0037081987939639343,-3.155151029500604e-06,36.82566666666666,0.017065234314893762,-1.8645838391341637e-05,102.87133333333334,0.2164213996401991,0.8300000000000125,0.00025652784736541204
S010,16741.0,16770.984375,W,-0.009026041666666658,43.11626994533875,-199.22,284.08,483.29999999999995,1.51,26.901490514555206,578.125,588.037109375,10.668655413562353,10.251459923130733,15.029090678522898,62.94513919271371,5.405829601140205,135.36247633668646,0.06770833333333333,33,0.17378205833333332,0.0029485135924615566,3.08852405830188e-06,36.760666666666665,0.019821424996425176,-2.5833340341076425e-05,102.914,0.42958584706668484,1.1700000000000017,-0.0006643751802233047
