participant_id,window_start_time,window_end_time,sleep_stage,BVP_mean,BVP_std,BVP_min,BVP_max,BVP_range,BVP_median,SDNN,median_nni,IBI_mean,x_std,y_std,z_std,mag_mean,mag_std,mag_max,movement_density,burst_count,EDA_mean,EDA_std,EDA_trend,TEMP_mean,TEMP_std,TEMP_slope,HR_mean,HR_std,HR_range,HR_trend
S013,8546.0,8575.984375,W,0.3955260416666667,35.90244484093825,-207.7,426.51,634.21,-1.05,0.0,578.125,578.125,6.180140737874062,2.25551407665747,4.791316902995518,65.04342374563899,3.203010684535031,113.05308487608819,0.03125,10,0.2804336416666666,0.005238689468425973,-2.551809502986516e-06,34.96866666666667,0.014544949486180772,6.250001695421827e-06,64.92333333333333,2.316454666558839,6.100000000000001,0.004054028877503495
S013,8576.0,8605.984375,W,0.42506249999999984,103.44796348635995,-752.72,751.12,1503.8400000000001,-2.41,0.0,578.125,578.125,1.1716245102657916,0.7973915809270457,1.574304023917306,64.99399001907747,0.5041607548448995,68.26419266350405,0.11666666666666667,75,0.2909355833333334,0.0026831057923711347,4.270834925899226e-06,34.99766666666666,0.01725945795466646,2.170139477576893e-05,70.78033333333333,3.099561779062037,9.86999999999999,0.005095174993265786
S013,8606.0,8635.984375,N1,-0.1848854166666666,23.889642736781088,-65.77,78.14,143.91,-4.265000000000001,223.77534221414223,1125.0,946.8668619791666,0.19290530474101072,0.10152910775842672,0.3695656586341142,64.9732311460901,0.2142454279918935,65.73431371817918,0.121875,79,0.29601578333333334,0.0015415859376160532,1.893845999849724e-06,35.02133333333333,0.015216949614017887,1.0416669492369283e-05,89.54166666666666,7.262439022501706,24.099999999999994,0.013069829934307163
S013,8636.0,8665.984375,W,-0.07588020833333324,23.139942700524706,-59.97,72.26,132.23000000000002,-5.21,27.30324303100839,796.875,780.8268229166666,0.12801909579781015,0.05589199343873464,0.3836954811073779,65.00898772754564,0.22186250957261125,65.49045732013177,0.16979166666666667,97,0.2989186333333333,0.0015279346404724079,1.911622046338439e-06,35.05666666666666,0.020869967789998577,3.18055641833675e-05,116.31766666666665,7.002383253023374,23.049999999999997,0.012564135352684283
S013,8666.0,8695.984375,W,-0.08748437500000018,43.43554382375546,-274.3,383.51,657.81,-1.5150000000000001,0.0,796.875,796.875,1.972280784537424,0.5893108911168101,1.8803523144317633,65.07668233463353,0.5556524548056866,69.98571282769076,0.016666666666666666,3,0.29792615,0.00976630958674599,-7.46952546373846e-06,35.10466666666668,0.019955506062793962,2.486111785512034e-05,132.92166666666668,2.8797153601624483,9.769999999999982,0.005137675004794647
S013,8696.0,8725.984375,W,-0.08645312499999971,62.601371397159454,-334.98,446.49,781.47,-9.12,0.0,796.875,796.875,12.64993343746212,11.426151017877077,6.435704644468493,65.05141116715066,3.7888747444292683,130.11533345459327,0.016666666666666666,7,0.299825925,0.006210262269236969,6.123878180305495e-06,35.14999999999999,0.014832396974189812,2.000000542534662e-05,130.0076666666667,4.8916177851050024,15.980000000000004,-0.008697050970337182
S013,8726.0,8755.984375,W,-0.24893229166666628,42.349539895124586,-168.42,401.46,569.88,-10.24,54.222967769798885,890.625,852.05078125,16.836564993784524,8.914487601242616,10.079111493493059,65.44955066450643,5.457703376653909,129.74975915199227,0.06354166666666666,20,0.3006690416666667,0.006308370875796478,-5.434191795299418e-06,35.22266666666667,0.020645150089602115,2.6875007290311322e-05,102.38233333333332,10.478797540218482,34.13000000000001,-0.018892262069298525
S013,8756.0,8785.984375,W,0.6166197916666665,75.48597254678917,-517.34,245.25,762.59,-0.015,0.0,890.625,890.625,22.50786781323953,10.584589769169009,23.268730414532,65.77032280843035,5.346733053139484,97.205966895042,0.10416666666666667,49,0.2860902083333334,0.027834616726867236,-5.085715355282991e-07,35.279999999999994,0.01843908891458557,1.9513894182371506e-05,79.87766666666667,2.0052243155207234,7.170000000000002,-0.003382952306573434
S013,8786.0,8815.984375,W,-0.06527083333333294,52.55540376027774,-217.19,248.0,465.19,-1.0350000000000001,92.31095318454993,890.625,825.87890625,15.806938525709384,4.908686585335792,8.225215230107795,64.75317296495005,2.7734844458297556,107.96758772891057,0.07083333333333333,32,0.29693352500000003,0.009853533103209307,6.13774276739984e-06,35.352,0.038935844667862075,6.527779548551094e-05,77.18233333333333,0.3901596539309962,1.1799999999999926,-0.000531076532952617
S013,8816.0,8845.984375,W,0.0348749999999988,121.48017523441582,-703.61,594.01,1297.62,1.085,20.632757404200387,812.5,817.28515625,15.24759188067815,3.698639013955749,14.360151751751557,64.75889381394845,2.1549954355134044,82.29216244576394,0.07083333333333333,32,0.31799076666666665,0.03911650724219749,5.0671550203871e-06,35.437333333333335,0.026068286394689943,-3.215278649978028e-05,74.37233333333333,2.157981592960318,6.480000000000004,-0.0038512163224870646
S013,8846.0,8875.984375,W,0.06889062500000002,20.898681648723773,-87.24,70.95,158.19,4.855,71.69342278991603,875.0,871.8343098958334,10.024650552842091,2.6676227127350676,10.003172185663988,64.8193064391156,1.8761697023528157,86.35971282953643,0.027083333333333334,13,0.3253655166666667,0.03172012225307024,1.2710808569555271e-05,35.35733333333333,0.02768071932270195,-4.076389994680486e-05,70.36333333333333,0.30983149542219757,1.0499999999999972,0.00015437504187691117
S013,8876.0,8905.984375,W,-0.1503593750000002,83.71298366931362,-434.72,395.73,830.45,0.45499999999999996,10.205321483965353,890.625,889.9169921875,6.288224689708844,8.756496596178685,10.643894759895094,64.04573664631832,1.7478775025071165,83.96427811873333,0.04583333333333333,21,0.28867297499999994,0.011286078818218559,-4.921148687377568e-06,35.266666666666666,0.026874192494328528,-3.1458341866954155e-05,66.817,1.8998949970985242,5.650000000000006,-0.003311007842612805
S013,8906.0,8935.984375,W,-0.008604166666666642,3.974764069201589,-9.73,7.31,17.04,1.005,73.19258257624979,828.125,828.7027994791666,0.4856937692620732,0.3108009366495253,0.1561249499599599,63.97725604333768,0.3232014313276468,65.12296062065974,0.35520833333333335,211,0.28552457499999995,0.0011002969119174235,-7.339452945815198e-07,35.30466666666667,0.033239868966180613,5.756946006115952e-05,65.60033333333332,0.3908578883544373,1.019999999999996,0.0006246182249940957
S013,8936.0,8965.984375,W,0.017947916666666633,4.574555654354565,-11.28,8.74,20.02,1.36,58.50259599332556,812.5,802.2705078125,0.4782600118020414,0.40760457928678323,0.20453835214941965,63.95457067879853,0.3359900155701741,65.12296062065974,0.3229166666666667,205,0.2838811666666666,0.0011394800154261367,-1.194900063720716e-06,35.437000000000005,0.0378725934328953,6.545140664372044e-05,69.20666666666668,2.2977385017060192,6.570000000000007,0.004104237224456713
S013,8966.0,8995.984375,W,0.020947916666666653,5.585502256343708,-11.64,9.7,21.34,2.02,47.27317322428601,781.25,786.6129557291666,0.46837484987987976,0.45780153807505813,0.20219874281810515,63.917943580584215,0.33638533844299456,65.12296062065974,0.265625,176,0.28296326666666666,0.0009824836702063944,2.6657515911869754e-07,35.60099999999999,0.04846648326421049,8.552085653235041e-05,73.74066666666666,0.7095300479112133,2.450000000000003,0.0012726392341143751
S013,8996.0,9025.984375,N1,0.00029166666666667526,6.130893535197831,-12.27,11.54,23.81,1.955,59.46487851954085,781.25,767.96875,0.4821814128837356,0.48543790189603264,0.1529193630552463,64.06624495798577,0.30380692886968885,65.12296062065974,0.021875,21,0.2833475416666666,0.0010587806972789755,-4.083384354216661e-07,35.77766666666667,0.043717527631629324,7.628474291578425e-05,76.19433333333333,0.6171530514296184,1.9100000000000108,0.0010987850202867357
S013,9026.0,9055.984375,N1,0.03501041666666667,5.1778401727031085,-11.45,10.86,22.31,1.18,54.83794091914565,796.875,785.986328125,0.4766407608782065,0.4261919050504779,0.06441510347391796,64.09151010145845,0.29439131777489985,65.12296062065974,0.004166666666666667,4,0.28362505833333335,0.0010444228812748928,1.6759922081142452e-07,35.92466666666667,0.04153178167246003,7.138890825436972e-05,77.44200000000001,0.22036938686366367,0.7199999999999989,0.0002516667349356377
S013,9056.0,9085.984375,N1,-0.04351041666666667,4.752962932246385,-10.93,8.04,18.97,1.225,73.91051416549175,796.875,791.89453125,0.4883528419738016,0.36795317627458474,0.12801909579781012,64.09188815977618,0.317341217104877,65.12296062065974,0.015625,15,0.2842547333333333,0.0009618472395459751,5.419276643683959e-07,36.04366666666667,0.031356374506983545,5.281251432631086e-05,76.90133333333333,0.40707684232286595,1.1700000000000017,-0.0006850696302814746
S013,9086.0,9115.984375,N1,-0.0037135416666666753,4.712664764054227,-10.28,8.79,19.07,1.15,54.94309535275815,781.25,788.6067708333334,0.4977978850648122,0.4236075534914362,0.1356408400888169,64.0427380998843,0.33007070398154836,65.12296062065974,0.015625,15,0.28518302500000003,0.0009662020101278009,-3.581012256134003e-08,36.135000000000005,0.025787593916453983,4.1423622347985707e-05,75.92433333333335,0.17169126037422092,0.4399999999999977,-0.00028336813242407945
S013,9116.0,9145.984375,N1,-0.020812499999999994,5.0010637374972955,-12.0,9.83,21.83,1.12,69.16149133447384,765.625,761.6943359375,0.45210613421764395,0.431803187870997,0.09090593428863095,64.12938689457575,0.2920243011850007,65.12296062065974,0.008333333333333333,8,0.28536449166666666,0.0011570183662892174,3.980241965126432e-07,36.20366666666667,0.025230052626888436,3.732639901432253e-05,75.81333333333332,0.25011108643072144,0.7800000000000011,0.00028368063250885337
S013,9146.0,9175.984375,N1,-0.018364583333333337,5.652522798899532,-27.21,14.76,41.97,1.1549999999999998,69.1123502284802,796.875,786.6455078125,0.45547880027505117,0.3952352938440594,0.11110243021644486,64.13977452289016,0.298871465363702,65.12296062065974,0.0125,12,0.28565264166666665,0.0011852258771772475,5.73396639918797e-07,36.26133333333333,0.02291045370325384,2.8125007629399244e-05,76.12466666666667,0.17178927660234067,0.5500000000000114,0.0001200694770153755
S013,9176.0,9205.984375,N1,0.045187499999999985,5.344787303439718,-17.38,19.04,36.42,0.74,64.49390033511717,750.0,746.2320963541666,0.4568809849129202,0.4501145205358545,0.09090593428863097,64.11606328653984,0.2908527171689993,65.12296062065974,0.00625,6,0.28683729999999996,0.0010049536772077314,5.320491894664729e-07,36.31133333333333,0.01910206504252539,3.0069452601304796e-05,76.90066666666667,0.3022243463977632,1.019999999999996,0.0005404168132641082
S013,9206.0,9235.984375,N2,-0.02400520833333335,6.003576160816391,-20.29,22.13,42.42,0.615,92.49992197337023,718.75,715.6819661458334,0.41197356981027583,0.4061164310337068,0.2900232719350102,63.91305018449476,0.33250230212952886,65.12296062065974,0.25,174,0.28748843333333335,0.0009201312382239548,1.7932079517165506e-07,36.36366666666666,0.02105284356618311,2.4618062233630345e-05,78.575,0.4741290260396782,1.5300000000000011,0.0007951043823525348
S013,9236.0,9265.984375,N1,-0.014895833333333334,5.469015602081966,-17.54,13.4,30.939999999999998,0.925,59.93951448607172,734.375,744.5393880208334,0.44385146531682074,0.4841229182759271,0.3234941073651883,63.92953180339969,0.34363992507783114,65.12296062065974,0.253125,163,0.28781931666666666,0.0009015954098460919,3.690669403935905e-07,36.386999999999986,0.01615549442140298,1.989583873042467e-05,79.37366666666667,0.2951777242423427,0.9699999999999989,0.0004848265204064985
S013,9266.0,9295.984375,W,0.045536458333333335,4.956255456462314,-16.47,13.36,29.83,0.905,66.18081066655716,828.125,827.6123046875,0.32714138285304106,0.49010942478582153,0.07198059875565237,64.14953796000592,0.22432383829384175,65.12296062065974,0.005208333333333333,4,0.2886729666666667,0.0009553287212030982,3.1962682281543255e-07,36.38533333333332,0.015860503004493102,-1.0486113955651336e-05,78.84566666666666,0.9419932177156177,2.8800000000000097,-0.0016871879576790259
S013,9296.0,9325.984375,N1,-0.03985416666666666,5.521233631360475,-26.91,26.89,53.8,0.97,80.99617067555225,781.25,783.30078125,0.2476254416957191,0.4496092053105675,0.12447371850002002,64.16229083633557,0.18376062370086155,65.12296062065974,0.008333333333333333,8,0.289110425,0.0009709104203658499,-2.97753987020928e-08,36.35966666666666,0.01722078847078421,-1.1076391893550184e-05,76.86733333333332,0.4779116608281867,1.8500000000000085,-0.00047423623975592405
S013,9326.0,9355.984375,N2,0.0011770833333332989,5.0791704918527945,-20.87,13.38,34.25,0.995,75.18120130984387,781.25,791.5120442708334,0.06441510347391796,0.4261919050504779,0.0,64.18035856541496,0.09848560690363922,64.34283176858165,0.23854166666666668,148,0.28947325833333337,0.0009982837313428868,6.950793986217936e-07,36.357333333333344,0.018607047649268727,1.0972225198628069e-05,74.74300000000001,0.2647659343646755,0.9299999999999926,0.00013538198116915646
S013,9356.0,9385.984375,N2,0.04243750000000002,7.776805095673527,-45.32,31.08,76.4,0.74,65.41470484211477,765.625,746.7529296875,0.45629161720390565,0.4985917668794783,0.41581162267973654,64.16554936639051,0.30954188080057454,64.93843238021688,0.06666666666666667,52,0.2899108166666667,0.0009772387458491802,1.8675005065919352e-07,36.38233333333333,0.020113566455393066,1.7187504662408356e-05,75.00600000000001,0.3041994959452327,0.9100000000000108,-0.0003649306545493307
S013,9386.0,9415.984375,N2,-0.016078124999999988,4.437281858974007,-9.77,7.83,17.6,0.665,40.38247973035459,781.25,778.2389322916666,0.41197356981027583,0.4984306970103488,0.4963364044565831,64.03527380223184,0.46587810265524704,64.93843238021688,0.11354166666666667,100,0.29114900000000005,0.0010631712311131624,7.666820656147138e-07,36.40066666666665,0.011234866364233528,9.722224859548244e-07,76.37433333333333,0.6881796438592339,2.1500000000000057,0.0011959378244188973
S013,9416.0,9445.984375,N1,-0.010640624999999975,4.757207859748154,-10.68,20.89,31.57,0.37,50.068448157178345,765.625,762.3697916666666,0.4801213315981238,0.4618050334165803,0.5035292113340264,64.04562176248967,0.4632311044275106,64.93843238021688,0.15729166666666666,121,0.29277133333333333,0.0016731546119697282,2.2107801136013805e-06,36.39466666666666,0.0123107902084119,1.18055587580182e-06,77.28333333333333,0.22913363398292827,0.9500000000000028,0.00021506950278577994
S013,9446.0,9475.984375,N2,-0.021583333333333333,6.01200068035222,-19.93,24.12,44.05,0.44,73.33891002084908,781.25,770.0358072916666,0.49817265908908415,0.3869395588747966,0.4995657836784082,64.07406983029037,0.48737430831837114,64.93843238021688,0.23333333333333334,166,0.29491643333333334,0.0010581464669673947,4.7500099690782907e-07,36.39799999999999,0.01423610433604091,4.16666779695323e-07,78.40599999999999,0.1299384469662454,0.4399999999999977,-0.00012875003492568147
S013,9476.0,9505.984375,N2,0.04319270833333334,5.119817630251117,-11.19,9.62,20.81,0.95,51.47481584862362,828.125,814.9251302083334,0.4965855638479859,0.3984289895605266,0.49553562491061676,64.07026729030756,0.4860720267749439,64.93843238021688,0.23541666666666666,166,0.2952686083333333,0.0009034082714534864,1.957316069150472e-07,36.41066666666666,0.01314872194887754,3.958334407100116e-06,77.38633333333333,0.5078876734957135,1.8599999999999994,-0.0008393405054634624
S013,9506.0,9535.984375,N2,-0.03835416666666666,4.84790435819774,-9.78,11.18,20.96,0.94,54.95346788565679,765.625,775.537109375,0.49171852657287596,0.43999289766995103,0.4999305507323548,64.05242639646589,0.47015712833126655,64.93843238021688,0.18125,144,0.296570775,0.001093434028359732,5.842265039676926e-07,36.42533333333333,0.014313940369058161,4.6527790399255966e-06,75.605,0.13720422734012233,0.5699999999999932,-0.00018232643834810127
S013,9536.0,9565.984375,N2,0.021078124999999986,5.462852709259435,-17.35,30.73,48.08,0.7,51.144517699061254,742.1875,734.8551432291666,0.49994682877004254,0.43420885111762625,0.4999305507323548,64.08728161111084,0.4900279225138304,64.93843238021688,0.234375,179,0.2975312416666666,0.0010838269234202226,5.868484664844988e-07,36.42533333333333,0.01687865186823156,-8.680557910308235e-06,76.62433333333334,0.7669579881294373,2.530000000000001,0.0013635767587827563
S013,9566.0,9595.984375,N2,0.006078125000000014,4.479807157789252,-9.84,9.02,18.86,0.56,75.07769436888614,750.0,772.1272786458334,0.48246599621113195,0.436561493377508,0.49881695979086366,64.04665024365453,0.49215603926855545,64.93843238021688,0.203125,156,0.2983635833333333,0.00104470402972431,6.186516435144389e-07,36.41399999999999,0.012000000000000928,-7.0833352548124975e-06,78.58633333333334,0.23774612977338333,0.7999999999999972,0.00042281261469526344
S013,9596.0,9625.984375,N2,0.024786458333333337,4.747495398477667,-10.46,10.0,20.46,1.045,54.73855617441478,765.625,773.3479817708334,0.4997221450188317,0.43240962246141357,0.4988876515698588,64.06166763029331,0.4912047358257124,64.93843238021688,0.21979166666666666,166,0.29934542500000005,0.0009017074605297418,8.280492697615797e-08,36.40466666666665,0.01024152766382336,4.722223503206416e-06,78.49866666666667,0.5062722148761051,1.3800000000000097,-0.0008663891239119832
S013,9626.0,9655.984375,N2,-0.014567708333333325,4.978257949218507,-15.45,13.3,28.75,0.79,63.579880839416134,781.25,785.8479817708334,0.4761123215254288,0.44439018766044874,0.49369285885952296,64.0983377686092,0.4609450089630607,65.71149062378664,0.21979166666666666,153,0.29992185833333335,0.0010456919104579656,8.033797752223794e-07,36.405333333333324,0.012310790208412106,-7.013890791528496e-06,77.31433333333332,0.18494473649053986,0.5100000000000051,-0.00032225703186225757
S013,9656.0,9685.984375,N2,-0.02521354166666668,4.634037628900592,-10.56,8.55,19.11,0.785,68.55871726687806,781.25,788.6474609375,0.42425895361467886,0.4568809849129202,0.45780153807505813,64.11154832695003,0.44134769492729564,64.93843238021688,0.22604166666666667,163,0.300231425,0.000945144509784093,4.2839009016658395e-07,36.39066666666666,0.010934146311237432,-4.097223333664813e-06,76.39866666666667,0.32598295797309673,1.0300000000000011,-0.0005323612555233458
S013,9686.0,9715.984375,N2,0.020036458333333333,4.618638344243982,-9.25,8.76,18.009999999999998,0.74,49.620993280821644,781.25,775.2604166666666,0.47103494024387993,0.46719533856300405,0.46393241957267395,64.06970064674653,0.4671730974208347,64.93843238021688,0.20833333333333334,157,0.3001460166666667,0.0010432323725113048,5.810331437264159e-08,36.383333333333326,0.012995725793079192,-1.09722251986294e-05,76.71433333333334,0.1561982358699632,0.6200000000000045,0.0001447569837122899
S013,9716.0,9745.984375,N2,-0.03671354166666664,11.345412976416576,-91.59,93.93,185.52,0.855,59.99864185968389,750.0,770.9228515625,0.4591611841777956,0.47505482139783967,0.4769696007084729,64.18225256717652,0.3720959596142082,64.93843238021688,0.1,74,0.30025278333333333,0.0011312279919283433,9.509646676879018e-07,36.37266666666666,0.015691469727919256,-7.083335254809586e-06,77.47533333333332,0.3831512611083113,1.25,0.00040555566556957194
S013,9746.0,9775.984375,N2,0.037911458333333314,5.2649555793545915,-11.39,10.94,22.33,0.83,78.81399202089943,765.625,781.7057291666666,0.0,0.03225804701500421,0.2179449471770337,64.30391428189293,0.168769152877035,64.34283176858165,0.0,0,0.30136290833333335,0.0010299281285267193,3.9830327644945584e-07,36.36966666666667,0.01559558342038517,-7.256946413017948e-06,76.83833333333332,0.24591439341545113,0.7199999999999989,0.00021760422569559092
S013,9776.0,9805.984375,N2,-0.004833333333333323,5.088812921633973,-10.8,10.27,21.07,0.79,50.810778257242454,796.875,804.9153645833334,0.0,0.05581428468591172,0.19982631347136334,64.30992621747633,0.15496742478968709,64.34283176858165,0.0,0,0.30224879999999993,0.0009919463745586218,4.5190854272692593e-07,36.36266666666667,0.01611072796479132,-1.5277781922141777e-06,75.45899999999999,0.4978577440728755,1.710000000000008,-0.0005887154374770601
S013,9806.0,9835.984375,N2,0.0013854166666666724,5.262608595217204,-11.5,10.67,22.17,0.61,63.21975744834545,765.625,770.7600911458334,0.0,0.07880950133074055,0.16532992583014122,64.31975034112992,0.12880626814756793,64.34283176858165,0.0,0,0.30307035833333335,0.0009173149022721487,1.0483271072936178e-07,36.36233333333334,0.015423647068343479,8.159724435688747e-06,75.22933333333334,0.37036858518088317,1.0500000000000114,-0.00041194455619155714
S013,9836.0,9865.984375,N2,0.021609375000000007,5.404490567604755,-12.77,11.49,24.259999999999998,0.85,84.63854622556774,765.625,758.0647786458334,0.0,0.0,0.1874276480775686,64.3146140588352,0.14506365180087716,64.34283176858165,0.0,0,0.30326248333333333,0.0011076791802633581,3.7544801851346375e-07,36.37166666666666,0.01674979270186741,1.2847225707256115e-06,77.089,0.6556846294777195,2.0600000000000023,0.0010677433451994765
S013,9866.0,9895.984375,N2,-0.024114583333333325,5.464569883138471,-10.62,10.98,21.6,0.63,90.81727564028748,765.625,775.2848307291666,0.0,0.07880950133074056,0.19741988090108853,64.31007302355273,0.154540303195816,64.34283176858165,0.0,0,0.30331585,0.0010498847686770283,2.956979968798844e-07,36.379666666666665,0.012242911781472068,7.98611327747794e-07,77.15466666666666,0.135664619149168,0.4099999999999966,0.00010875002950033287
S013,9896.0,9925.984375,N2,0.009994791666666659,5.477078520028375,-12.36,11.3,23.66,0.82,79.73332136945093,765.625,774.5279947916666,0.0,0.08507936450096987,0.19982631347136334,64.30905056418766,0.15537223932498714,64.34283176858165,0.0,0,0.30345455833333335,0.0011489242127299965,7.862100657036909e-07,36.389333333333326,0.01314872194887717,7.986113277483294e-06,76.975,0.27021904694771937,0.9000000000000057,-0.000140937538231753
S013,9926.0,9955.984375,N2,-0.03729166666666666,5.580993299279012,-12.1,11.39,23.490000000000002,0.745,75.83084449945758,765.625,780.2001953125,0.0,0.05581428468591172,0.19741988090108853,64.31073243775481,0.15311211417795204,64.34283176858165,0.0,0,0.3044791499999999,0.0011514443802604407,1.2121348774237526e-06,36.39599999999999,0.01380821011813769,1.2708336780689514e-05,77.36466666666666,0.11330587902762142,0.36999999999999034,-0.00014395837238453891
S013,9956.0,9985.984375,N2,-0.002510416666666663,5.047463342888996,-11.39,10.83,22.22,0.64,107.09740264286589,781.25,764.5914713541666,0.0,0.045595976308831845,0.1899835519196333,64.3133700119124,0.14726748060878825,64.34283176858165,0.0,0,0.3051195333333333,0.0009920955761529321,4.752345039156011e-08,36.40066666666665,0.013399834161493457,-3.750001017253441e-06,76.84899999999999,0.30287896372423534,1.0499999999999972,-0.0005216320859462041
S013,9986.0,10015.984375,N2,0.05739062500000003,4.542218943506075,-10.03,10.91,20.939999999999998,0.55,141.57385310181272,875.0,863.1184895833334,0.0,0.03225804701500421,0.12401959270615269,64.33051955108242,0.09619920893617503,64.34283176858165,0.0,0,0.30539706666666666,0.0009626927402978649,-5.606802736220316e-07,36.379666666666665,0.01741327718214477,-2.059028336324963e-05,75.701,0.8673536379893338,2.8599999999999994,-0.0014444101140435425
S013,10016.0,10045.984375,N2,-0.06284375,4.960206054246733,-11.24,8.73,19.97,0.785,69.63811227683019,812.5,809.4482421875,0.0,0.05581428468591172,0.13188915142607024,64.32846928388113,0.10266251876219346,64.34283176858165,0.0,0,0.30546109999999993,0.0010057462105322564,5.917588410804126e-07,36.36566666666667,0.015638272140984896,-3.5069453957645555e-06,72.41566666666668,0.4636930258503153,1.5999999999999943,-0.0007630210403160368
S013,10046.0,10075.984375,N2,0.04153125000000002,4.412460310145211,-9.38,11.22,20.6,0.59,88.71541310445406,875.0,859.8063151041666,0.0,0.09636964965693297,0.1496378730654628,64.32312202832018,0.11873301910883102,64.34283176858165,0.0,0,0.30593066666666663,0.0011639383169032354,8.461855594036297e-07,36.36933333333333,0.014590712418824954,2.0833338984753852e-07,72.06133333333334,0.13613065619306874,0.6299999999999955,0.00015326393046439152
S013,10076.0,10105.984375,N2,0.005989583333333334,5.081140164853898,-15.01,10.26,25.27,0.8,83.63848724030896,812.5,812.1500651041666,0.0,0.07198059875565237,0.16827350421923892,64.31916303417363,0.1309258698265303,64.34283176858165,0.0,0,0.307990275,0.001096558548083498,-3.446854233630022e-08,36.36133333333334,0.015860503004491457,-1.5069448532291674e-05,73.21433333333333,0.28841732880594284,1.0300000000000011,0.00042010428062724516
S013,10106.0,10135.984375,N2,-0.02941666666666668,5.486372280984545,-11.11,11.2,22.31,0.64,64.19914940636652,781.25,785.5875651041666,0.0,0.05581428468591172,0.1821904480893551,64.31556975942563,0.14137369080858037,64.34283176858165,0.0,0,0.30828910833333334,0.0009808082364036398,1.115234677526263e-09,36.362,0.019561867668159708,1.9305560792522885e-05,73.84933333333333,0.6152773539000294,2.010000000000005,0.0010519447298027145
S013,10136.0,10165.984375,N2,0.019880208333333333,4.890208119742958,-9.71,9.72,19.43,0.985,80.26759612896066,781.25,798.73046875,0.0,0.07198059875565237,0.17399263633843817,64.31755059361669,0.13531680440558266,64.34283176858165,0.0,0,0.30913237499999996,0.0011223514160198116,6.657825156745121e-07,36.389333333333326,0.009637888196533956,-6.875001864964121e-06,75.02866666666667,0.24608580256126666,0.8100000000000023,0.0001275000345865967
S013,10166.0,10195.984375,N2,-0.014166666666666662,5.0672772247255455,-10.47,9.15,19.62,0.93,65.83743100753081,796.875,789.5100911458334,0.03225804701500421,0.055814284685911715,0.19982631347136334,64.30930884838685,0.15904541109452316,64.34283176858165,0.0,0,0.3109363,0.000994536002364918,-1.1334942310910985e-07,36.39199999999999,0.013012814197294836,6.458335085269414e-06,75.80966666666669,0.39006395487008344,1.1500000000000057,0.0005270487540822373
S013,10196.0,10225.984375,N2,-0.0076145833333333725,5.335157090919378,-15.34,9.73,25.07,0.68,98.22399526274062,773.4375,764.2252604166666,0.0,0.1015291077584267,0.19982631347136334,64.30838847575002,0.15786593052216089,64.34283176858165,0.0,0,0.31093630833333336,0.0009379394596297485,1.6005494793157079e-07,36.38733333333333,0.011234866364235468,2.77777853129071e-07,75.942,0.4334389614851582,1.3699999999999903,-0.00025798618109434013
S013,10226.0,10255.984375,N2,0.004614583333333326,5.108535989461233,-10.9,9.59,20.490000000000002,1.04,55.29556041365893,781.25,789.1520182291666,0.0,0.06441510347391793,0.20219874281810518,64.3089010838757,0.15689609392115156,64.34283176858165,0.0,0,0.31146985833333335,0.0009582139922431479,5.9467247034302646e-08,36.389333333333326,0.008137703743822536,1.041666949236778e-06,75.227,0.35101899283847027,0.980000000000004,-0.000508020971142842
S013,10256.0,10285.984375,N2,-0.01865104166666666,5.208615169351135,-11.39,10.42,21.810000000000002,0.875,82.99279729136387,812.5,809.7819010416666,0.0,0.07198059875565238,0.17399263633843817,64.31755059361669,0.13531680440558266,64.34283176858165,0.0,0,0.3119713333333333,0.000882368595819736,2.1147531778301824e-07,36.392666666666656,0.009977753031396268,1.5277781922140786e-06,75.79766666666666,0.38535423818726794,1.3300000000000125,0.0006142709999650078
S013,10286.0,10315.984375,N2,0.029447916666666674,5.25138038473733,-11.12,9.69,20.81,0.835,77.6101590089584,812.5,810.4654947916666,0.0,0.06441510347391793,0.17677362623014653,64.3169632866604,0.13732655379144942,64.34283176858165,0.0,0,0.3129531916666667,0.0010297868492705577,5.972629658374021e-07,36.39199999999999,0.011944315244778646,-6.944446328210171e-08,74.768,0.39388153887516364,1.480000000000004,-0.0006391668400517694
S013,10316.0,10345.984375,N2,0.020677083333333336,5.095835070171669,-11.03,10.11,21.14,0.94,87.57265344384095,796.875,805.615234375,0.0,0.05581428468591172,0.20219874281810515,64.30911732296231,0.15788964964614552,64.34283176858165,0.0,0,0.3131559583333334,0.0010455129474396337,-8.950805379450072e-08,36.40733333333332,0.012364824660660498,-1.5277781922137336e-06,74.098,0.18046975739257065,0.5799999999999983,-0.00020895839001692745
S013,10346.0,10375.984375,N2,-0.05266145833333333,5.262461346846759,-11.1,11.12,22.22,0.585,75.13539843424846,765.625,778.6458333333334,0.0,0.07880950133074056,0.1899835519196333,64.31249168438815,0.14887358900456507,64.34283176858165,0.0,0,0.31342275833333333,0.0009493525600449525,6.311047718926e-08,36.40466666666665,0.011469767022722266,-4.1666677969408945e-07,75.10766666666665,0.7400391130804428,2.230000000000004,0.0013064239655012921
S013,10376.0,10405.984375,N2,-0.016187499999999962,5.068658686626119,-11.09,10.15,21.240000000000002,0.615,68.72872495437035,812.5,786.7024739583334,0.0,0.05581428468591172,0.21794494717703367,64.30347645524859,0.16894013521746218,64.34283176858165,0.0,0,0.3134547666666668,0.0009817755066997592,4.046975924201382e-07,36.414666666666655,0.012310790208413426,5.3472236727494985e-06,76.49600000000001,0.11001818031579917,0.3499999999999943,0.0001540278195604955
S013,10406.0,10435.984375,N2,0.04720312500000001,5.8047656283787115,-11.83,10.93,22.759999999999998,0.58,65.26489305378787,781.25,793.1884765625,0.0,0.06441510347391793,0.19741988090108856,64.31051352443264,0.15321626468367402,64.34283176858165,0.0,0,0.31390304166666666,0.0010893278615414902,-1.1285962262902386e-07,36.41799999999999,0.012220201853216399,5.138890282902059e-06,76.47933333333334,0.4906114099320929,1.6500000000000057,-0.0007313890872908777
S013,10436.0,10465.984375,N2,-0.01671354166666667,4.859500025853993,-10.83,10.25,21.08,0.5,73.80594260050823,812.5,808.2275390625,0.0,0.045595976308831845,0.20219874281810518,64.30933891052004,0.1566968151219264,64.34283176858165,0.0,0,0.31460755833333337,0.0009447959109055671,-5.4982870817836074e-08,36.411333333333324,0.012578641509408765,-1.0277780565803798e-05,74.479,0.4115527507703807,1.2199999999999989,-0.0006576043450532618
S013,10466.0,10495.984375,N2,-0.035010416666666676,5.198887581322068,-11.14,11.28,22.42,0.68,85.1068460329853,734.375,729.1178385416666,0.0,0.04559597630883184,0.21794494717703367,64.30369536857076,0.16885480759547783,64.34283176858165,0.0,0,0.31404185,0.00090416639923191,-1.865842520031163e-08,36.409333333333315,0.008137703743822052,6.458335085268551e-06,74.69033333333333,0.16412359841155,0.7600000000000051,0.00025454868016185983
S013,10496.0,10525.984375,N2,0.06982812500000003,4.500132778323581,-19.93,14.8,34.730000000000004,0.275,97.33570303057199,687.5,732.5032552083334,0.31476781290606354,0.20024941045828046,0.3186819099387698,64.30008581378242,0.21410123823869184,65.33758489567853,0.034375,15,0.31375362500000004,0.0010840970056726206,3.752733222855197e-07,36.40866666666666,0.01257864150940831,-5.833334915726306e-06,76.46733333333333,0.9879808815064306,2.6200000000000045,0.001743611584096025
S013,10526.0,10555.984375,N2,-0.02571874999999999,3.759244910337505,-9.3,7.02,16.32,0.76,93.05845539989922,828.125,796.5250651041666,0.0,0.03225804701500421,0.1561249499599599,64.3232635685762,0.12099127024502845,64.34283176858165,0.0,0,0.3131239416666667,0.0010714605008727944,-3.38787635304812e-07,36.38866666666666,0.013597385369581052,-6.6666684751166315e-06,76.33966666666667,0.6134247214523475,1.8500000000000085,-0.0010091322181890801
S013,10556.0,10585.984375,N2,-0.03245312500000001,4.41222125806202,-9.55,8.67,18.22,0.51,62.610274094725284,812.5,800.7893880208334,0.0,0.06441510347391792,0.19741988090108856,64.31051352443265,0.153216264683674,64.34283176858165,0.0,0,0.313145275,0.001058689307292286,5.545008014596419e-07,36.38533333333333,0.011175369742827509,-6.944446328187967e-08,74.63733333333333,0.8517313087014119,2.4499999999999886,-0.0015277781922141335
S013,10586.0,10615.984375,N2,0.03993229166666669,4.39329804996568,-9.13,8.68,17.810000000000002,0.69,56.956885756855236,781.25,787.4104817708334,0.0,0.032258047015004204,0.2530285309999645,64.2894023168805,0.19589471222685226,64.34283176858165,0.0,0,0.3142019416666667,0.0010630641505872947,2.2680062575971657e-07,36.39866666666665,0.011175369742825191,6.1805572321375535e-06,74.48333333333333,0.5515634344499468,1.6199999999999903,0.0008636113453806797
S013,10616.0,10645.984375,N2,-0.004520833333333337,4.410000989652115,-9.36,9.34,18.7,0.715,48.92470645633466,781.25,792.6595052083334,0.0,0.03225804701500421,0.2650647686834714,64.2837587749312,0.205201770099896,64.34283176858165,0.0,0,0.31428733333333336,0.000955612406900525,1.1710506648901243e-08,36.40199999999998,0.011075498483889163,-3.750001017252208e-06,75.71966666666667,0.44894307978728026,1.6699999999999875,0.0007814932675491714
S013,10646.0,10675.984375,N2,0.02332812499999998,4.785730560374315,-9.2,8.32,17.52,0.695,81.58689735688368,765.625,767.041015625,0.0,0.06441510347391793,0.2530285309999645,64.28874290267841,0.1969415987367339,64.34283176858165,0.0,0,0.3150344416666667,0.0008745068019159196,2.1179107307700273e-07,36.414666666666655,0.013349989596334632,8.541668983742651e-06,76.99766666666667,0.2619883373146385,0.8200000000000074,0.00022274311597849188
S013,10676.0,10705.984375,N2,-0.009406250000000015,4.824943173409155,-9.97,9.38,19.35,0.58,66.56632620849041,796.875,811.7350260416666,0.0,0.04559597630883184,0.29292696461272083,64.26902522236102,0.22753454137510798,64.34283176858165,0.0,0,0.3137643166666667,0.0009852206435052484,-8.481339106266152e-08,36.41733333333333,0.010934146311238933,7.638890961067184e-07,76.166,0.4853493587097853,1.5600000000000023,-0.0008624307895048797
S013,10706.0,10735.984375,N2,-0.002890625000000017,4.284706236103449,-9.57,8.44,18.009999999999998,0.59,76.34078466703114,828.125,828.5481770833334,0.0,0.0,0.2914805954090255,64.2702719435194,0.2255976641270553,64.34283176858165,0.0,0,0.3138603833333334,0.0008708651463088633,5.4512601593045355e-08,36.42666666666666,0.01164283279771714,1.0069447175958382e-05,73.58166666666668,1.0515958771737786,2.9000000000000057,-0.0018435074445278432
S013,10736.0,10765.984375,N2,-0.04233854166666667,4.794234373613741,-9.05,9.24,18.29,0.69,74.93803325396532,828.125,844.775390625,0.0,0.04559597630883185,0.3210226714043037,64.25209727074873,0.24848804848462766,64.34283176858165,0.0,0,0.3138817166666667,0.0010137527984616817,3.5242761296322184e-07,36.436,0.010519822558707979,8.26389113061412e-06,72.01066666666665,0.1619657028166429,0.6700000000000017,-0.0002720139626773997
S013,10766.0,10795.984375,N2,0.03881250000000001,4.796529870456045,-9.19,9.38,18.57,0.44,58.666655218961345,781.25,782.177734375,0.0,0.032258047015004204,0.33767356648100244,64.24102910017234,0.26135254122998414,64.34283176858165,0.0,0,0.3138070250000001,0.0008178924691190585,-1.8094037026376894e-07,36.446,0.015832456116051236,1.0833336272064953e-05,72.83733333333335,1.2132681301161574,3.1200000000000045,0.002101458903390546
S013,10796.0,10825.984375,N2,0.028874999999999977,4.647809025161748,-11.29,11.41,22.7,0.51,74.0938400403155,812.5,819.8486328125,0.0,0.05581428468591172,0.3476343040826092,64.23333529102177,0.2690490497543336,64.34283176858165,0.0,0,0.3143513916666667,0.0009034082714534696,-4.785884544782021e-07,36.458000000000006,0.011075498483889161,1.8055560453440394e-06,75.31099999999999,0.2854861350982444,0.8999999999999915,0.0004383681744705327
S013,10826.0,10855.984375,N2,-0.045302083333333326,4.911096853512359,-10.56,9.34,19.9,0.47,69.76687622087444,796.875,799.70703125,0.0,0.0,0.35910164724706506,64.22512360792514,0.27793442884056624,64.34283176858165,0.0,0,0.31372164166666666,0.000969811680996486,1.9595469725333617e-07,36.45066666666666,0.01209223809814432,-1.0416669492377147e-06,75.54633333333335,0.36676498681792835,1.0799999999999983,-0.000516423751200019
S013,10856.0,10885.984375,N2,0.0030520833333333107,4.923208531769433,-9.6,9.36,18.96,0.53,54.484150368651925,796.875,780.5745442708334,0.0,0.04559597630883185,0.3717436742904982,64.21419956918957,0.28887486614655483,64.34283176858165,0.0,0,0.3138390666666667,0.0009901016592025085,-2.3681777257426228e-07,36.46066666666666,0.011234866364233528,5.694445989160722e-06,74.46566666666668,0.30373983750718164,0.7900000000000063,-0.0004594098468451183
S013,10886.0,10915.984375,N2,0.005937499999999977,4.8340714439549215,-9.95,9.73,19.68,0.52,93.85056047359723,765.625,765.9098307291666,0.0,0.03225804701500421,0.3886352099191334,64.19910564569194,0.3007645146646655,64.34283176858165,0.0,0,0.3139457916666667,0.0010317900698610602,-4.560135785626822e-08,36.47000000000001,0.01154700538379227,9.583335932980168e-06,74.09066666666668,0.37229856596852645,0.9500000000000028,-0.0005985418290315276
S013,10916.0,10945.984375,N2,-0.0029843750000000243,5.086779750384572,-10.28,9.71,19.990000000000002,0.53,76.47321992686658,796.875,797.5179036458334,0.0,0.045595976308831845,0.40155405579102577,64.18598720791427,0.31071875621379264,64.34283176858165,0.0,0,0.31456482500000005,0.0010216880367191303,-7.282011523983091e-08,36.47533333333334,0.011469767022724248,-3.6111120906877828e-06,74.31766666666665,0.47037349226143915,1.2800000000000011,0.0007719793760794738
S013,10946.0,10975.984375,N2,0.022583333333333348,5.1725072089257536,-10.02,11.98,22.0,0.725,70.41879977996282,796.875,794.0592447916666,0.5218781187531559,0.829124135215724,0.7219013042345577,64.12529757809163,0.4048689349977609,66.73829485385434,0.021875,14,0.31420195833333336,0.0010501557931709721,-4.936687537078888e-07,36.48066666666667,0.009977753031398737,-4.027778870383352e-06,74.72066666666666,0.2723102805420484,0.7600000000000051,0.00023652784194005947
S013,10976.0,11005.984375,N2,-0.03103645833333342,11.74548551655078,-67.66,98.42,166.07999999999998,0.405,101.3275398885212,812.5,821.1018880208334,0.05581428468591172,0.3736070773739289,0.20453835214941965,63.47627186348047,0.1892801632093068,64.41273166075166,0.20416666666666666,140,0.31376432500000007,0.0009851882321203083,1.776005256077831e-07,36.476000000000006,0.013808210118139028,-3.541667627405509e-06,73.929,0.7424300191488307,2.3499999999999943,-0.0013355211956166432
S013,11006.0,11035.984375,N2,-0.0013802083333333437,3.246648579885873,-7.12,6.44,13.56,0.535,88.08937451371443,875.0,858.8785807291666,0.09090593428863095,0.3476343040826092,0.1874276480775686,63.46662745953774,0.17592302933454976,64.41273166075166,0.18020833333333333,125,0.3141272500000001,0.0009777773199967344,3.6332258119644446e-07,36.46333333333334,0.015776212754931775,-1.3888892656491603e-05,72.19433333333333,0.511205655506882,1.4500000000000028,-0.0008264932797562036
S013,11036.0,11065.984375,N2,0.019348958333333336,3.4652471116638632,-7.24,6.67,13.91,0.575,82.24770341389754,812.5,805.8349609375,0.07880950133074056,0.34977516339865466,0.16532992583014122,63.4596916565542,0.16718708602028665,64.41273166075166,0.16875,125,0.31454351666666674,0.0009116586073683931,3.904080920162009e-09,36.452666666666666,0.011234866364234342,-4.861112429772739e-06,72.53966666666669,0.9978426172943743,2.6599999999999966,0.001758229643616981
S013,11066.0,11095.984375,N3,-0.024864583333333346,3.471477498606176,-7.22,13.52,20.74,0.435,78.57276604354887,812.5,782.3893229166666,0.1496378730654628,0.33071891388307384,0.17950549357115012,63.46903200117565,0.18455396791635387,64.41273166075166,0.17395833333333333,118,0.3152264333333334,0.0011798342520126343,1.2404395726018773e-06,36.434666666666665,0.009910712498213887,-3.6805565539709948e-06,75.00066666666667,0.7183682126102796,2.780000000000001,0.0012504864503272695
S013,11096.0,11125.984375,N3,-0.001473958333333351,3.178465048892337,-7.16,6.34,13.5,0.67,66.43614451382422,828.125,819.384765625,0.23040385738958447,0.26836818808308854,0.11557806855349137,63.462045648891504,0.1826072050725741,64.7533782902483,0.14166666666666666,114,0.3155252583333334,0.0009486211616150454,-9.784789980682887e-08,36.431999999999995,0.011944315244781145,-8.125002204049176e-06,76.11433333333335,0.6775823853147955,1.8199999999999932,-0.0011223266933394886
S013,11126.0,11155.984375,N3,0.03604166666666667,3.526101904950738,-7.42,7.29,14.71,0.64,102.06752187543763,781.25,764.1438802083334,0.19741988090108856,0.2494438257849294,0.1356408400888169,63.45308455890718,0.17325788151976856,64.41273166075166,0.11979166666666667,100,0.31502375000000005,0.0009563180629372144,-9.123266363733861e-09,36.42133333333333,0.016069294390926855,-5.902779379009691e-06,75.51633333333332,0.2655244286731855,1.2399999999999949,-8.336807817059254e-05
S013,11156.0,11185.984375,N3,-0.001661458333333345,3.4887536874419123,-7.57,7.39,14.96,0.46499999999999997,69.8790534543545,765.625,793.1884765625,0.22838645595544604,0.254795584597841,0.13188915142607024,63.46220975348112,0.18544955783000275,64.7533782902483,0.1375,107,0.31546122500000007,0.0011451164312163413,1.035948414699541e-06,36.41666666666665,0.010749676997732494,1.2500003390837736e-06,74.71933333333332,0.308209164187064,1.0200000000000102,0.0003359028688972612
S013,11186.0,11215.984375,N3,-0.031203125,3.48949028637998,-7.61,6.83,14.440000000000001,0.48,69.1856051182367,812.5,804.150390625,0.2179449471770337,0.2494438257849294,0.10642856726723121,63.4534546618823,0.1759729310091649,64.7533782902483,0.11979166666666667,97,0.3161121416666667,0.0010145289735950752,5.716405630535341e-07,36.41399999999999,0.013063945294843919,-8.333335593897085e-07,75.02333333333334,0.1884026421140512,0.6599999999999966,0.00022687506154379653
S013,11216.0,11245.984375,N3,0.024421875000000006,3.7995223218326823,-7.4,7.02,14.42,0.695,58.78376083153681,781.25,798.7141927083334,0.21578094200034337,0.26170307270624255,0.1561249499599599,63.46489960294592,0.19434090664084006,64.7533782902483,0.13958333333333334,96,0.31615482500000003,0.0009098731474084661,-4.1095996391057825e-07,36.411333333333324,0.014544949486180795,-5.277779209465646e-06,75.13799999999998,0.13697688369453778,0.480000000000004,0.00016506948922241025
S013,11246.0,11275.984375,N3,0.002203124999999965,3.885490744207682,-7.17,8.38,15.55,0.26,75.13025769739497,750.0,759.0169270833334,0.19982631347136334,0.2582808246366733,0.13188915142607024,63.454390090428646,0.17309415080854323,65.02307282803544,0.128125,108,0.316656375,0.0009954752806448728,4.0249034355749207e-07,36.41333333333332,0.011642832797715713,6.319446158703855e-06,75.40233333333332,0.14992627817994117,0.539999999999992,0.000122256977608771
S013,11276.0,11305.984375,N3,0.006880208333333322,3.9523206535085125,-7.36,7.8,15.16,0.20500000000000002,81.87240318211673,750.0,756.0384114583334,0.20684625513624577,0.26339134382131846,0.15612494995995993,63.46260145571297,0.19172412473335257,65.02307282803544,0.13645833333333332,104,0.31717939166666664,0.0009711619011595762,2.7433818205787178e-08,36.42399999999999,0.013808210118140811,-6.250001695422444e-07,76.486,0.40199170804051837,1.1000000000000085,0.0006377779507861197
S013,11306.0,11335.984375,N3,-0.006916666666666638,3.8828216857145983,-7.97,7.63,15.6,0.28500000000000003,63.55733834539805,765.625,762.7766927083334,0.17677362623014653,0.285583892616902,0.11987768650679834,63.451131704667795,0.16050045763507165,64.41273166075166,0.13229166666666667,100,0.317094,0.000956965777862505,-2.3651829332635952e-07,36.429999999999986,0.016329931618557073,2.333333966291046e-05,76.75033333333333,0.1849771757692179,0.5,-0.0002681597949652246
S013,11336.0,11365.984375,N3,0.00438020833333332,3.8892801030557,-7.74,8.14,15.88,0.155,84.75782257907335,812.5,816.1295572916666,0.19741988090108856,0.2779493827570048,0.1462753717308556,63.460275164215965,0.18466478276624707,64.7533782902483,0.13854166666666667,101,0.3164856833333333,0.0010348671330444026,3.640916786272983e-07,36.447333333333326,0.011234866364235468,1.1250003051759189e-05,76.41600000000001,0.4005130043664826,1.1799999999999926,-0.00046312512563072896
S013,11366.0,11395.984375,N3,-0.05766666666666666,3.694593385573333,-7.39,7.16,14.55,0.515,71.75176255457075,812.5,800.78125,0.17677362623014653,0.28256636388643286,0.13928372696486202,63.45443194612168,0.16975392487820384,64.41273166075166,0.13333333333333333,99,0.316912575,0.0010437467817315611,-6.785527014303003e-08,36.45466666666666,0.009910712498210955,1.1805558758017212e-06,76.06166666666668,0.22354840390593192,0.8300000000000125,-0.00036149315361685166
S013,11396.0,11425.984375,N3,0.052223958333333306,3.7336056636883863,-7.45,8.08,15.530000000000001,0.45,42.67953972035675,796.875,803.1412760416666,0.15612494995995993,0.2565462379810357,0.16532992583014122,63.4515296671885,0.17153588710306517,64.41273166075166,0.11875,93,0.316901875,0.0010298787352766296,-7.311178198562012e-08,36.45066666666666,0.00963788819653358,-4.513890113358975e-06,75.34266666666666,0.2065580359662192,0.7399999999999949,-0.0002964584137528241
S013,11426.0,11455.984375,N3,-0.020312499999999994,3.9245608706381088,-7.48,7.93,15.41,0.28,61.8796776224712,812.5,805.2815755208334,0.16532992583014122,0.2530285309999645,0.1496378730654628,63.44901579701852,0.16614067240947242,64.7533782902483,0.11666666666666667,96,0.3169339333333333,0.001031649389192962,-5.686355709189343e-07,36.46633333333334,0.01559558342038551,-3.5069453957648033e-06,74.87966666666667,0.07327952571413833,0.28000000000000114,-8.80903016738017e-05
S013,11456.0,11485.984375,N3,0.010442708333333325,3.9202978418218004,-8.33,8.13,16.46,0.405,78.54805524900652,781.25,796.0205078125,0.16232629604869597,0.232399078305449,0.17399263633843817,63.451412312018256,0.17837398051448203,64.7533782902483,0.109375,89,0.31646430833333333,0.000983634754332389,1.1007880590245093e-07,36.47066666666668,0.01209223809814457,4.791667966489628e-06,75.046,0.1352676359419862,0.480000000000004,9.979169373689435e-05
S013,11486.0,11515.984375,N3,0.017567708333333328,3.486117134823104,-7.32,7.34,14.66,0.425,63.58033082654839,796.875,802.6448567708334,0.162326296048696,0.2582808246366733,0.1874276480775686,63.45928949873999,0.1932001943774752,64.7533782902483,0.12291666666666666,94,0.3174462333333333,0.0010579889786235437,7.738539425602046e-07,36.472666666666676,0.013399834161494614,-3.1944453109929777e-06,74.68666666666667,0.11628509028341638,0.4399999999999977,-3.750001017253663e-06
S013,11516.0,11545.984375,N3,0.0012239583333333083,4.004639992643034,-7.92,7.83,15.75,0.22,75.6466744454157,796.875,798.0061848958334,0.162326296048696,0.2599996661322642,0.13928372696486202,63.44718098882876,0.1646194727415753,64.7533782902483,0.11354166666666667,90,0.31770240833333335,0.0009315803373464694,6.176839783213949e-07,36.47466666666667,0.013349989596334193,-1.736111582061938e-06,74.37033333333332,0.23547800085971562,0.6999999999999886,-0.0003992014971792233
S013,11546.0,11575.984375,N3,-0.00046875000000000296,4.07462406101554,-7.83,8.19,16.02,0.155,92.1932872385308,765.625,760.9700520833334,0.16532992583014122,0.26170307270624255,0.17677362623014653,63.45742709542766,0.1818555154033646,64.7533782902483,0.12916666666666668,104,0.31834289166666657,0.0009315761356954334,-1.3121119010720152e-07,36.47466666666667,0.011175369742827509,-4.513890113359716e-06,74.532,0.14239382009062002,0.5499999999999972,0.0001952778307502808
S013,11576.0,11605.984375,N3,-0.013416666666666669,3.988422280140635,-7.51,8.89,16.4,0.385,71.3059589678555,781.25,779.3782552083334,0.16232629604869597,0.24578919095210203,0.17677362623014653,63.45420554978032,0.17750036496275787,64.7533782902483,0.12083333333333333,84,0.31801197499999995,0.0010300165489164133,1.8261832210783947e-07,36.480000000000004,0.012110601416390882,7.638890961068425e-07,74.89933333333335,0.13190737490965065,0.539999999999992,0.00022319450498982645
S013,11606.0,11635.984375,N3,-0.03045312499999999,4.019720988567208,-8.03,8.19,16.22,0.455,82.55385748945346,812.5,810.0667317708334,0.11557806855349137,0.2530285309999645,0.1496378730654628,63.43998374870744,0.14692502760073753,64.41273166075166,0.10416666666666667,77,0.31796925833333334,0.000963709478143647,-5.0344414698463915e-08,36.487,0.009000000000000896,1.7013893504198997e-06,75.23766666666667,0.12507819776266083,0.45000000000000284,-0.0001471875399271727
S013,11636.0,11665.984375,N3,-0.011979166666666678,3.590437885258469,-7.18,7.18,14.36,0.54,61.494461044465666,828.125,815.3645833333334,0.11110243021644486,0.26672362672915867,0.194978186101819,63.45403034323513,0.1785119971547473,64.41273166075166,0.121875,96,0.3177024083333333,0.0010809980072124237,-2.4905323596279075e-07,36.49000000000001,0.006324555320336998,9.027780226721061e-07,74.53933333333333,0.17490822990611196,0.6500000000000057,2.63888960473329e-06
S013,11666.0,11695.984375,N3,0.06802083333333335,3.847710146901137,-7.51,7.64,15.149999999999999,0.42,55.51885213651076,796.875,801.025390625,0.1462753717308556,0.24206145913796356,0.1899835519196333,63.45427863450815,0.18068750427558197,64.7533782902483,0.11770833333333333,97,0.31692323333333333,0.00107024256388706,-8.974998094346215e-07,36.48400000000001,0.011430952132988916,-6.250001695422369e-06,74.04466666666667,0.1730651771892762,0.6500000000000057,-2.0277783278480128e-05
S013,11696.0,11725.984375,N3,-0.032557291666666675,3.6914443977269022,-7.71,6.9,14.61,0.385,58.025455325000756,796.875,796.3460286458334,0.11557806855349137,0.24762544169571915,0.18483053424390924,63.448410603721335,0.17447596276364405,64.7533782902483,0.10729166666666666,86,0.316496325,0.0009433911804627957,-2.164824805996297e-07,36.47933333333334,0.009977753031398738,-1.944444971909205e-06,74.98866666666666,0.272906984561082,0.960000000000008,0.0002463195112628898
S013,11726.0,11755.984375,N3,0.008453124999999987,3.797051138286271,-7.74,7.44,15.18,0.51,55.18091588617858,781.25,790.869140625,0.1462753717308556,0.22219509383022434,0.21137108216357317,63.458400153306684,0.1887237384973378,64.41273166075166,0.11770833333333333,97,0.31723274166666665,0.0009295472150087646,1.4289608911026594e-07,36.471333333333334,0.013597385369580654,1.944444971908662e-06,75.16833333333334,0.09205372827261742,0.3199999999999932,-5.364584788570265e-05
S013,11756.0,11785.984375,N3,-0.002130208333333313,3.968902253473764,-8.15,7.74,15.89,0.38,79.2292560814617,812.5,816.4143880208334,0.12401959270615269,0.2382571993782256,0.19982631347136334,63.45294343479756,0.17680816453726167,64.41273166075166,0.115625,96,0.31738219166666665,0.0009919308888546052,-7.507489015703078e-08,36.47200000000001,0.009451631252505591,-1.5972226554961073e-06,74.82466666666666,0.2594190089839639,0.8199999999999932,-0.0004216667810511001
S013,11786.0,11815.984375,N3,0.02019270833333333,3.7744924071474166,-7.32,8.12,15.44,0.375,59.48647135224855,781.25,781.2581380208334,0.10642856726723121,0.2382571993782256,0.21358993356949718,63.454995882740086,0.18807583958868787,64.7533782902483,0.1125,94,0.31696589999999997,0.0010325606229176036,-2.681936491410718e-07,36.476000000000006,0.011718930554165412,-3.958334407100042e-06,74.45766666666668,0.1365938830580962,0.45000000000000284,0.0001341319808300726
S013,11816.0,11845.984375,N3,-0.01625520833333331,3.58846675235892,-7.12,7.06,14.18,0.47,79.11479656097829,781.25,802.0182291666666,0.11110243021644486,0.26339134382131846,0.21137108216357317,63.4589023547184,0.18258404726410127,64.41273166075166,0.13229166666666667,105,0.31631486666666664,0.0008587255666910571,4.1053830581010336e-08,36.476666666666674,0.011925695879999684,-6.944446328246616e-06,73.87999999999998,0.2577725095247103,0.8400000000000034,-6.1944461247954e-05
S013,11846.0,11875.984375,N3,-0.042598958333333346,3.800102570655023,-8.6,8.18,16.78,0.415,62.30952112255239,781.25,801.2125651041666,0.11110243021644486,0.2512447311498403,0.20219874281810515,63.453767372501645,0.1843626040674685,65.02307282803544,0.115625,94,0.31664575,0.001071438676499962,6.03410753963418e-07,36.47966666666668,0.011685698761973088,-6.597224011830729e-07,74.05300000000001,0.2245758965991963,0.6700000000000017,-3.6493065454931485e-05
S013,11876.0,11905.984375,N3,0.06222916666666666,3.9478241145154005,-9.57,10.5,20.07,0.48,83.00541254700518,843.75,842.9036458333334,0.1462753717308556,0.23632521950693286,0.19249988726547926,63.454187704700146,0.18376906707483628,64.7533782902483,0.11354166666666667,91,0.31712604166666664,0.0010217190203755705,-2.8679282953364297e-07,36.479000000000006,0.010440306508911945,1.562500423855623e-06,74.53533333333334,0.1811580034727197,0.6599999999999966,2.895834118878634e-05
S013,11906.0,11935.984375,N3,-0.01564062500000001,3.8118522135482826,-7.29,7.64,14.93,0.315,70.27281547847389,812.5,817.3746744791666,0.1064285672672312,0.22219509383022434,0.19982631347136331,63.44804692630721,0.17832434060460317,64.7533782902483,0.1,80,0.3173181166666667,0.0008224142324414243,-1.1345489188781817e-09,36.482,0.010770329614270295,2.777778531298346e-06,73.92166666666667,0.18898118660038243,0.7000000000000028,-0.000173298658121383
S013,11936.0,11965.984375,N3,-0.014104166666666666,4.134426518271021,-8.15,9.88,18.03,0.16,66.76399755375377,687.5,733.7239583333334,0.13928372696486202,0.2304038573895845,0.20219874281810515,63.455145762559674,0.18455239266744777,64.41273166075166,0.11354166666666667,93,0.31738217499999993,0.0010586049598606954,-6.698784369244859e-07,36.480000000000004,0.010000000000001565,1.5972226554968467e-06,73.59966666666666,0.1542397124248115,0.6499999999999915,0.00017211810224557715
S013,11966.0,11995.984375,N3,-0.0004166666666666726,3.7283152799071178,-7.25,8.21,15.46,0.33,91.04853750354621,796.875,785.6038411458334,0.09636964965693294,0.21358993356949715,0.20453835214941968,63.44716700584091,0.17594677111367155,64.41273166075166,0.09583333333333334,78,0.31773444166666664,0.0010716168686913693,7.775151848728327e-07,36.49066666666668,0.006798692684790467,-1.6666671187794162e-06,74.32166666666667,0.18459113978977687,0.8000000000000114,0.0001740625472174901
S013,11996.0,12025.984375,N3,0.025468750000000002,4.003853806160605,-7.72,7.59,15.309999999999999,0.095,55.41890550933389,781.25,788.0126953125,0.11110243021644486,0.23437268517375387,0.21137108216357317,63.45429530498574,0.18627671440775068,64.7533782902483,0.11145833333333334,91,0.3176276833333334,0.0008827795023233302,1.8262721967969369e-07,36.49033333333333,0.004818944098267027,2.951389689504463e-06,75.14866666666667,0.30525108062416967,0.9000000000000057,0.00041604177952522564
S013,12026.0,12055.984375,N3,-0.016666666666666666,3.8221847255710824,-7.53,7.99,15.52,0.275,70.03743752460068,812.5,810.4329427083334,0.10642856726723121,0.20912350152216008,0.2263462809256845,63.455654106814684,0.187537221974629,64.41273166075166,0.109375,88,0.31729679166666663,0.0010092455176668117,-4.858983522944752e-07,36.49266666666667,0.008919392106839586,-2.222222825038647e-06,75.85333333333334,0.22156012477178497,0.8000000000000114,-0.00010972225198629039
S013,12056.0,12085.984375,N3,-0.008109374999999995,3.8625034949438914,-7.81,8.39,16.2,0.39,82.72108834835066,859.375,831.2581380208334,0.07880950133074055,0.23437268517375387,0.23632521950693283,63.45973415955747,0.19540231564901095,64.41273166075166,0.11770833333333333,100,0.31716870833333327,0.0009872874150573105,-3.346760890505873e-07,36.49000000000001,0.011832159566199681,-1.59722265549697e-06,74.62299999999999,0.40301488806246416,1.3499999999999943,-0.0007244099187309903
S013,12086.0,12115.984375,N3,-0.008963541666666653,3.594991353536768,-7.87,7.96,15.83,0.485,84.46256975484053,781.25,787.7034505208334,0.07198059875565237,0.17116012950028855,0.31080093664952524,63.48782639957945,0.23730934143052565,64.41273166075166,0.11354166666666667,95,0.31728609999999996,0.0008671110886155217,3.8610123320888486e-07,36.48966666666667,0.008749603165604847,-3.993056638741241e-06,73.30099999999999,0.24273922907790135,0.8200000000000074,-3.218750873142055e-05
S013,12116.0,12145.984375,N3,-0.024614583333333336,3.867294887552193,-7.72,7.72,15.44,0.155,77.99087709889346,796.875,809.912109375,0.07198059875565237,0.1821904480893551,0.2667236267291586,63.46568032115699,0.21194662702442205,64.41273166075166,0.08229166666666667,69,0.3177984833333333,0.0010626672808185208,5.651017157936551e-07,36.49300000000001,0.010049875621120847,7.326390876299458e-06,74.12400000000001,0.18562686587165422,0.5799999999999983,0.0003015278595724422
S013,12146.0,12175.984375,N3,0.06106770833333334,3.7437912985478037,-6.88,7.84,14.719999999999999,0.53,68.33797592193669,812.5,812.5244140625,0.09090593428863095,0.17677362623014653,0.2957874817753449,63.481795822728024,0.2307938217049938,64.7533782902483,0.10416666666666667,86,0.31810806666666663,0.001035150687366611,4.875830315709243e-07,36.49033333333334,0.00795124029458461,4.51389011335683e-07,74.51633333333334,0.12402911844491464,0.38000000000000966,0.00021461811377444798
S013,12176.0,12205.984375,N3,-0.007510416666666683,3.729384814368382,-7.86,7.69,15.55,0.58,56.68654411096001,812.5,815.33203125,0.045595976308831845,0.16827350421923892,0.3,63.47938039233147,0.23169305632420914,64.7533782902483,0.10104166666666667,82,0.31841761666666657,0.001006769380935326,-5.26227139276034e-07,36.494666666666674,0.004988876515697596,-5.555557062595752e-07,74.35266666666668,0.11647412683605775,0.4099999999999966,-1.73611158206138e-05
S013,12206.0,12235.984375,N3,0.004921874999999994,3.9418100212841924,-7.34,8.68,16.02,0.21500000000000002,81.04702465189908,812.5,805.712890625,0.07198059875565237,0.1682735042192389,0.29002327193501026,63.47588654560834,0.2267390182377797,64.7533782902483,0.096875,84,0.3180333333333333,0.0009944703308238513,6.841408105850797e-07,36.49766666666667,0.0098938813864368,1.42361149729016e-06,74.10466666666666,0.17421697837913228,0.5,-0.00027187507375083214
S013,12236.0,12265.984375,N3,-0.0059010416666666655,3.8388845928590483,-7.58,7.82,15.4,0.365,83.8239074195918,796.875,799.853515625,0.05581428468591172,0.1682735042192389,0.302757867592056,63.48158806965422,0.2315192318881399,64.7533782902483,0.10416666666666667,85,0.318471,0.001075956512442151,7.211017581113751e-07,36.49766666666667,0.014067298564005973,-7.048613023170015e-06,73.729,0.08878250578426732,0.28000000000000114,-0.00013663198150824196
S013,12266.0,12295.984375,W,-0.06123958333333332,3.8265815936158774,-9.92,8.0,17.92,0.29,86.60066792181824,796.875,783.9925130208334,0.11162856937182343,0.3357965628132935,0.3926185242134604,63.553182485864845,0.31995455671403766,65.16133823057964,0.1625,109,0.31914349166666667,0.0009541828964776904,4.6056327597745205e-07,36.496,0.007999999999999414,6.944446328249877e-07,74.20533333333334,0.24628889991678937,0.8299999999999983,0.00029548619126687085
S013,12296.0,12325.984375,N2,0.04025520833333332,3.779103424793422,-19.98,18.66,38.64,0.37,61.81277853184402,781.25,772.5748697916666,0.26977155652205687,0.3,0.43481193052922956,63.985266476594646,0.3388813742908519,64.89221833163049,0.07708333333333334,60,0.31941035833333326,0.0009976700756916335,2.8073814039120496e-07,36.48966666666667,0.00406885187191157,-2.430556214883422e-07,75.76033333333335,0.651339559847415,2.0400000000000063,0.0009639933170554815
S013,12326.0,12355.984375,N2,-0.005786458333333333,3.01352696987267,-13.57,14.08,27.65,0.36,86.36081205228805,875.0,885.9700520833334,0.36210317120569685,0.4998165896245231,0.19648605760545285,64.15622570385327,0.30542882897999807,64.89221833163049,0.003125,3,0.31964517499999995,0.0009292417039581201,1.956803916233705e-07,36.45666666666666,0.017384539747206874,-2.0833338984738224e-05,75.02400000000002,0.6506591529620811,2.3400000000000034,-0.0011496530896411364
S013,12356.0,12385.984375,N2,0.0006875000000000085,2.6641677770009937,-5.99,7.23,13.22,0.16,33.91330249138568,921.875,937.3616536458334,0.09636964965693294,0.4955356249106168,0.25654623798103576,64.23649067530278,0.23570614842800294,64.41273166075166,0.0,0,0.31998669166666666,0.000900233588166914,3.546040458452803e-07,36.443999999999996,0.010519822558707391,-6.736112938399572e-06,70.50666666666667,1.4482042520154257,4.700000000000003,-0.002524861796023708
S013,12386.0,12415.984375,N2,0.030645833333333327,2.898342575864001,-6.82,6.73,13.55,0.33,93.55547432777652,812.5,775.7080078125,0.05581428468591173,0.4999902342796308,0.3318963165365888,64.1801562195986,0.2891181325783656,64.41273166075166,0.0,0,0.32027479166666667,0.0009519875077597123,-3.349056898073135e-07,36.45066666666666,0.01209223809814432,9.236113616566946e-06,67.91466666666666,0.26158151480731306,0.9799999999999898,6.569446226520612e-05
S013,12416.0,12445.984375,N2,-0.0359375,2.65687615291475,-5.99,7.49,13.48,0.20500000000000002,103.3141969450522,656.25,713.8264973958334,0.04559597630883184,0.49994682877004254,0.382617935250035,64.1449170800116,0.32020222532522413,64.41273166075166,0.0,0,0.3194957166666666,0.0009631749424285356,2.3739936995425399e-07,36.46933333333334,0.013148721948876965,1.5208337458859231e-05,70.53866666666666,0.6271402465867498,2.6500000000000057,0.000998819715391633
S013,12446.0,12475.984375,N2,0.05089583333333332,2.6771217694225213,-6.29,6.5,12.79,0.3,108.2276134116384,812.5,844.189453125,0.0,0.4964620925861308,0.36890886408434265,64.1720111995175,0.30594706895322993,64.41273166075166,0.0,0,0.3202214583333333,0.0009630120620206247,4.929378507318384e-07,36.48066666666667,0.009977753031398737,-4.1666677969483e-07,71.611,0.27788906659552665,0.8699999999999903,-0.00034739592757051
S013,12476.0,12505.984375,N2,-0.04370833333333335,3.090726636908742,-8.09,7.09,15.18,0.18,59.97000041429112,875.0,847.1842447916666,0.032258047015004204,0.49727992759500056,0.3927939782825088,64.14846043191727,0.32917707708495714,64.41273166075166,0.0,0,0.32088302499999993,0.0010946791193655833,5.558063573693473e-07,36.486000000000004,0.010198039027186512,5.625001525879286e-06,70.28166666666667,0.37488739049954106,1.3199999999999932,0.00010524308410457084
S013,12506.0,12535.984375,N2,0.02248958333333333,3.4700874973802645,-17.66,11.64,29.3,0.44,59.047610622396604,875.0,843.6360677083334,0.045595976308831845,0.4994256684071103,0.36795317627458474,64.16183377315365,0.3141181299018355,64.41273166075166,0.0,0,0.321651325,0.0010144362158567132,1.7782665414134652e-07,36.49666666666667,0.010110500592068285,8.611113447024206e-06,71.57,0.6371760614879796,2.0,0.0011377086419565542
S013,12536.0,12565.984375,N2,-0.050885416666666676,2.776707441564078,-6.83,6.1,12.93,0.31,80.12054023028449,843.75,838.3707682291666,0.045595976308831845,0.4993746088859545,0.35501736068661327,64.17222162256374,0.2974424726933983,64.41273166075166,0.0,0,0.32160863333333334,0.0009666158745276785,1.6055690119273436e-07,36.503,0.014866068747318655,-6.076390537215018e-06,72.289,0.11028296937121923,0.4099999999999966,-3.968751076592792e-05
S013,12566.0,12595.984375,N2,-0.0055624999999999885,2.8366077334721043,-7.76,6.79,14.55,0.35,107.45759743789439,796.875,840.9505208333334,0.05581428468591173,0.49975579974123363,0.3410547747430022,64.17906026789176,0.29807403496177437,64.41273166075166,0.0,0,0.32263325833333334,0.0010533495818564854,6.381392790091389e-07,36.50633333333334,0.016017351702311916,1.4895837374088047e-05,72.20766666666667,0.5608902645695383,1.6799999999999926,-0.0008437849511135362
S013,12596.0,12625.984375,N2,0.04397916666666669,2.7823013742342817,-6.02,6.49,12.51,0.39,94.53053119480717,812.5,844.775390625,0.06441510347391795,0.49960813637345386,0.34327460814517324,64.16723036633019,0.299104966490395,64.41273166075166,0.0,0,0.32220628333333334,0.0009144355470574409,1.3452434204762008e-07,36.50966666666667,0.01580787426850604,-1.1979169916224635e-05,70.857,0.34097067322572,1.25,-0.0005367709789417829
S013,12626.0,12655.984375,N2,-0.03843229166666668,2.503061748181065,-6.39,6.1,12.489999999999998,0.14,91.63139379876434,890.625,864.3636067708334,0.06441510347391795,0.49960813637345386,0.31977470096147376,64.19355247134881,0.2744469132401075,64.41273166075166,0.0,0,0.3216726833333333,0.001010184743692415,-5.308621231722392e-07,36.49766666666667,0.0098938813864368,2.6736118363746506e-06,68.14899999999999,0.6965503092622478,2.3499999999999943,-0.0008426043952377378
S013,12656.0,12685.984375,N2,0.039625,2.465757947408531,-5.35,5.24,10.59,0.38,93.66966478972904,843.75,839.0950520833334,0.07198059875565237,0.4986690184185854,0.33767356648100244,64.16591559570314,0.29906927586500076,64.41273166075166,0.0,0,0.32217429999999997,0.0010942102601115351,2.6378305766684534e-07,36.49266666666667,0.007717224601860006,-3.888889943818113e-06,68.13099999999999,0.639819505798314,1.6699999999999875,-0.0010134377749125897
S013,12686.0,12715.984375,R,-0.0019895833333333224,2.4549503134601647,-5.11,5.57,10.68,0.31,91.87893673801979,906.25,884.4645182291666,0.07198059875565237,0.49926595423236664,0.2900232719350102,64.1971294328723,0.26892857609666226,64.41273166075166,0.0,0,0.32208889999999996,0.0009497592624800714,6.223395785426454e-07,36.48233333333334,0.010225241100120038,-1.631944887138045e-06,69.55133333333333,1.0310600801548324,3.3000000000000114,0.0017035421287820447
S013,12716.0,12745.984375,R,0.011708333333333338,2.1624325370819215,-4.69,5.42,10.11,0.38,93.3237686251754,921.875,908.10546875,0.16827350421923892,0.4999609359740019,0.21358993356949718,64.2217064645829,0.23611884779665607,64.41273166075166,0.0,0,0.32190747499999994,0.0010009602636343873,-3.663175906894546e-07,36.470666666666666,0.015040685563571052,-1.78472270635914e-05,68.94333333333334,0.31353185200585726,1.2600000000000051,-0.00027909729793221066
S013,12746.0,12775.984375,R,-0.029354166666666664,2.269055305349043,-5.17,5.14,10.309999999999999,0.42,89.90125465179986,828.125,820.6136067708334,0.1428261375083551,0.4996483138168286,0.2363252195069329,64.21478689240664,0.24515851226383287,64.41273166075166,0.0,0,0.321715375,0.0010137930431675995,1.2392559785308255e-07,36.42466666666666,0.021249836600680284,-2.611111819420675e-05,68.95566666666667,0.544087513385689,1.5900000000000034,-0.000713507137995643
S013,12776.0,12805.984375,R,0.012109375,2.1789597285066504,-5.57,5.55,11.120000000000001,0.1,100.91628327678806,765.625,801.7252604166666,0.18483053424390922,0.49994682877004254,0.20219874281810518,64.2215339142562,0.23451730577552635,64.41273166075166,0.0,0,0.3219181583333333,0.0010429961169297706,4.155359200130056e-07,36.39866666666665,0.009910712498210366,-3.4027787008398993e-06,69.98866666666666,1.0467783379918065,3.8699999999999903,0.001806181045513521
S013,12806.0,12835.984375,R,-0.0029947916666666604,2.4149496069565384,-5.84,5.46,11.3,0.245,124.58221128845162,781.25,785.2213541666666,0.194978186101819,0.49851232675888324,0.23632521950693283,64.19810595428213,0.2563042776983149,64.41273166075166,0.0,0,0.3221956333333333,0.0009304372442865641,-5.0303399062336876e-08,36.369,0.01598957994028061,-1.0312502797444527e-05,73.90833333333333,0.9720805293572927,3.0999999999999943,0.0017300351915243025
S013,12836.0,12865.984375,R,0.006921875000000003,2.4999577817561542,-5.3,5.98,11.280000000000001,0.28,71.96922575873936,750.0,803.5481770833334,0.1529193630552463,0.4987440823931871,0.2221950938302244,64.21380623683825,0.23408740061412459,64.41273166075166,0.0,0,0.3225478833333334,0.0010010546120911192,-4.29730151293991e-07,36.36666666666667,0.0179505493571136,3.750001017253244e-06,76.867,0.6466176098230955,2.0,0.0007350349216132047
S013,12866.0,12895.984375,R,0.005656250000000011,2.3310565796799683,-5.2,5.69,10.89,0.23,110.0880149247217,750.0,807.6578776041666,0.16532992583014122,0.49826086429589156,0.254795584597841,64.19641151723475,0.258034189948191,64.41273166075166,0.0,0,0.32188615,0.0010499965686451987,-3.0069886629201776e-08,36.37233333333333,0.013828312341794028,4.5138901133565833e-07,75.53266666666669,0.48243088163544756,1.5400000000000063,-0.00035270842901161895
S013,12896.0,12925.984375,R,-0.02112500000000001,2.209265169358732,-5.57,5.19,10.760000000000002,0.06,79.50502958922166,671.875,661.0107421875,0.17399263633843817,0.4987440823931871,0.24393467007354425,64.20089196579076,0.2513545905638293,64.41273166075166,0.0,0,0.32266527500000003,0.0011957818220903326,6.23987365447966e-07,36.37133333333333,0.014996295838935365,1.1736114294736736e-05,78.36066666666666,1.4449542860896645,4.689999999999998,0.002601389594560981
S013,12926.0,12955.984375,R,-0.004718749999999997,2.261891866719488,-6.5,5.8,12.3,0.09,79.30925770558551,796.875,760.5224609375,0.1899835519196333,0.4970573128143496,0.22008274564480418,64.20131318998844,0.2430905476347744,64.41273166075166,0.0,0,0.32285739166666666,0.0010968177248737493,1.051527846009073e-06,36.38466666666667,0.008844332774282449,-5.694445989162671e-06,82.375,0.6028418808720347,1.9899999999999949,0.0008760071820766008
S013,12956.0,12985.984375,R,0.03983333333333334,2.5935935843064457,-5.76,5.4,11.16,0.49,115.42132857096536,937.5,882.4788411458334,0.16232629604869597,0.49352469367184554,0.18219044808935514,64.21289140337036,0.21504484562697956,64.41273166075166,0.0,0,0.323647275,0.0009555002874803266,2.7544929347037624e-08,36.367666666666665,0.014067298564004837,-8.854169068512576e-06,79.04366666666665,2.4231239937091322,7.400000000000006,-0.0043448275674988
S013,12986.0,13015.984375,R,-0.023619791666666664,2.7785184847369573,-5.89,5.3,11.19,0.39,96.57391620242574,843.75,863.1022135416666,0.10642856726723121,0.4951051638428839,0.2304038573895845,64.20885249707152,0.23347592876492876,64.41273166075166,0.0,0,0.32357251666666664,0.001000945869193507,3.41834294117377e-07,36.366,0.01743559577416118,-1.0763891808780803e-05,72.214,1.4839308159973843,4.859999999999999,-0.0026715979469395445
S013,13016.0,13045.984375,R,-0.004901041666666665,2.690796290637262,-5.68,6.59,12.27,0.37,81.275960247305,859.375,860.888671875,0.1462753717308556,0.49190936806376123,0.1899835519196333,64.21111865641802,0.22349323197367363,64.41273166075166,0.0,0,0.32346583333333334,0.0009166743908765422,-1.8786854054593566e-07,36.36966666666667,0.011967548714010057,9.375002543136248e-07,69.38799999999999,0.49942900730067097,1.5,0.0005887501597087025
S013,13046.0,13075.984375,R,-0.0019479166666666677,2.2526373795961905,-5.35,4.93,10.28,0.23,118.61945109313245,859.375,862.6139322916666,0.20453835214941965,0.49352469367184554,0.162326296048696,64.20829038159202,0.21561062085277233,64.41273166075166,0.0,0,0.3229001083333333,0.0009861266804678584,-8.924980719666908e-08,36.368,0.012489995996795563,-1.736111582060903e-06,69.682,0.7431796552651311,2.3299999999999983,-0.001243333670609176
S013,13076.0,13105.984375,R,0.005890625000000005,2.3790167871315613,-5.22,5.25,10.469999999999999,0.265,79.937987068183,875.0,860.6282552083334,0.23040385738958447,0.49434299833212964,0.1428261375083551,64.20683425809771,0.21683608210619562,64.41273166075166,0.0,0,0.3233270833333333,0.000904138859019388,-1.7542626286519407e-07,36.340333333333334,0.012512216252748632,-1.4618059520958506e-05,67.67633333333333,0.24115670331872524,0.8499999999999943,-0.0002642709050214048
S013,13106.0,13135.984375,R,0.015520833333333333,2.75636470652911,-6.07,5.78,11.850000000000001,0.45,86.64578527064151,812.5,830.6884765625,0.19741988090108856,0.4941838371806139,0.19249988726547926,64.20275972960641,0.2336695011394028,64.41273166075166,0.0,0,0.3230282166666667,0.0009422262925586868,1.0478344856321591e-07,36.32833333333333,0.008975274678557259,-5.93750161064973e-06,68.187,1.379045926235478,3.700000000000003,0.0023377436897091177
S013,13136.0,13165.984375,R,-0.018421874999999976,2.758049423796611,-5.77,5.97,11.739999999999998,0.315,87.6595253954821,906.25,855.5501302083334,0.17399263633843817,0.4931815908944922,0.19982631347136334,64.2043970196102,0.22497040161462575,64.41273166075166,0.0,0,0.32357254999999996,0.0010279311978435076,3.9966156674846567e-08,36.316,0.01380821011813769,-4.930556893054324e-06,70.56099999999999,0.07318242047559476,0.2600000000000051,-1.0312502797446404e-05
S013,13166.0,13195.984375,R,0.025677083333333333,2.1985039562677224,-6.67,6.85,13.52,-0.08499999999999999,88.20958074373317,750.0,761.1246744791666,0.17116012950028855,0.4990224819584785,0.22008274564480418,64.22895617798505,0.24482296966557723,64.41273166075166,0.0,0,0.32370061666666666,0.000894170902599465,-2.1731993742402665e-07,36.31066666666667,0.015040685563570915,-2.0138894351914047e-06,72.50366666666667,1.1805294951371983,4.200000000000003,0.0021014936256221846
S013,13196.0,13225.984375,R,-0.026703125000000008,2.369475024352842,-6.17,6.61,12.780000000000001,0.09,119.4192321299456,843.75,827.7180989583334,0.16532992583014122,0.4963364044565831,0.19741988090108856,64.24590277863403,0.23142923678030958,64.41273166075166,0.0,0,0.3230388916666667,0.000901700752243902,-1.0899547227524499e-07,36.294000000000004,0.010832051206181923,-6.666668475117372e-06,76.33833333333332,0.32002170065307994,1.4100000000000108,0.00042045150294366086
S013,13226.0,13255.984375,R,0.01721354166666667,1.992498169233778,-5.42,5.11,10.530000000000001,0.125,94.14221734564066,796.875,832.7392578125,0.23239907830544904,0.48946807153843597,0.1874276480775686,64.24284997429244,0.23268830486664976,64.41273166075166,0.0,0,0.3235939,0.0009255179306744879,-3.474397643879532e-07,36.28,0.011254628677421148,-1.1597225368169304e-05,75.04733333333334,1.2611712369416335,4.25,-0.0022361811621585187
S013,13256.0,13285.984375,R,-0.001968750000000008,2.3309419544160193,-5.04,5.01,10.05,0.315,89.23832861342305,937.5,915.2262369791666,0.2582808246366733,0.4931815908944922,0.1899835519196333,64.22786792659609,0.2536038979653313,64.41273166075166,0.0,0,0.32304954166666666,0.0009782449411729938,-2.093101696262353e-07,36.266666666666666,0.01043498389499959,-5.208334746184728e-06,70.24366666666666,0.7005211552043852,2.9499999999999886,-0.001164826704868352
S013,13286.0,13315.984375,R,0.008531250000000006,2.1134190380219056,-4.64,5.0,9.64,0.07,89.55665272385596,765.625,741.8212890625,0.20684625513624577,0.49010942478582153,0.20453835214941965,64.24405594967641,0.24414845520924852,64.41273166075166,0.0,0,0.3234231166666666,0.0009911812412750495,3.4301832221634154e-07,36.25333333333333,0.012736648783030524,-6.4583350852698585e-06,68.88733333333333,0.6041905512520214,2.200000000000003,0.0007324307542401112
S013,13316.0,13345.984375,R,0.01168229166666668,2.2279734890279586,-6.26,5.96,12.219999999999999,0.29,69.09987643163821,859.375,849.2106119791666,0.24206145913796356,0.49682586235018,0.1561249499599599,64.23568450843794,0.24100981811253763,64.41273166075166,0.0,0,0.32382869166666667,0.0009002335881669126,8.615171607848229e-08,36.23466666666666,0.015216949614018612,-1.854167169641804e-05,72.18266666666666,0.561948593932063,2.269999999999996,0.0009202085829558881
S013,13346.0,13375.984375,R,-0.02336979166666667,2.413022967652979,-5.92,5.7,11.620000000000001,0.15,47.64464120578605,890.625,872.1272786458334,0.19741988090108856,0.49888765156985887,0.17677362623014656,64.23718535008442,0.23420425323512403,64.41273166075166,0.0,0,0.3240314083333333,0.0010777055990686278,-1.7926632467076597e-07,36.21933333333333,0.01412641340027657,1.1597225368168833e-05,73.39433333333334,0.30044060237517184,1.1000000000000085,-0.00032142369830287005
S013,13376.0,13405.984375,R,-0.005026041666666659,2.498691532446899,-5.35,5.35,10.7,0.385,102.44917418382545,984.375,943.9127604166666,0.18998355191963326,0.4993746088859545,0.1821904480893551,64.22163638059739,0.23085839454351478,64.41273166075166,0.0,0,0.3226546083333333,0.0010552949295168145,-6.153493422714159e-07,36.224333333333334,0.01256538454997933,8.020835509123112e-06,71.225,0.6526497273933907,2.5999999999999943,-0.001149548922946214
S013,13406.0,13435.984375,R,-0.00863541666666665,2.3272799332938714,-5.08,6.07,11.15,0.27,101.5870020727809,859.375,902.7587890625,0.23239907830544904,0.49997287252798917,0.18483053424390924,64.21432419928284,0.24946802614018118,64.41273166075166,0.0,0,0.3221636,0.0009184383158383687,-4.609983889426888e-08,36.23066666666667,0.009637888196533955,-4.2361122602305446e-06,68.27466666666666,0.8499048312736088,2.8700000000000045,-0.0014929865161096227
S013,13436.0,13465.984375,R,0.01173958333333333,2.834154524665718,-15.21,18.09,33.3,0.195,106.39421237766229,859.375,850.3255208333334,0.16266017746619277,0.46876273130858953,0.4930066485916346,63.875766076121785,0.36805776978945626,64.41273166075166,0.23333333333333334,131,0.3223770833333333,0.000966778150898939,-3.8910600832957386e-08,36.212666666666664,0.01569146972791861,-1.902778293939243e-05,68.02766666666668,1.2180412782642298,3.480000000000004,0.0020808686200272978
S013,13466.0,13495.984375,R,0.011869791666666662,2.2273911528128876,-5.41,4.46,9.870000000000001,0.25,61.797491242810715,859.375,838.7613932291666,0.0,0.43420885111762614,0.2716154572133593,63.661121344183464,0.241876417098381,64.41273166075166,0.08020833333333334,70,0.3221209666666667,0.001071337317976421,1.8952609307890993e-07,36.19533333333333,0.01802467444612839,-4.861112429777691e-07,71.696,0.4299348787897995,1.730000000000004,0.0007004863011301799
S013,13496.0,13525.984375,R,-0.011677083333333338,2.381437940942018,-5.03,4.91,9.940000000000001,0.385,82.00487429325784,906.25,895.3694661458334,0.0,0.4609348516873073,0.2810396589995006,63.65085025866991,0.2530869713076964,64.41273166075166,0.08645833333333333,73,0.32269730833333327,0.0010579536678247757,2.140306570178613e-07,36.202,0.015577761927397748,5.347223672749473e-06,71.502,1.1190305327976235,3.019999999999996,-0.0018127782695253549
S013,13526.0,13555.984375,R,-0.010432291666666666,1.824762276354717,-6.27,4.87,11.14,0.01,104.49210859159064,718.75,707.9833984375,0.0,0.41480835601783894,0.34327460814517324,63.71149291327,0.2829235980699002,64.41273166075166,0.13645833333333332,109,0.32209959166666663,0.0010587491715528794,-1.395306368084407e-07,36.21133333333333,0.014996295838934987,-8.47222452045882e-06,70.964,1.0571647616778244,3.1499999999999915,0.00189451440280881
S013,13556.0,13585.984375,R,0.01194270833333334,2.241342121840022,-5.17,6.49,11.66,0.315,122.15226307328531,843.75,816.2923177083334,0.0,0.42809331796804406,0.33422894006204784,63.69957028418189,0.27979863694505713,64.41273166075166,0.128125,104,0.3223557416666667,0.0009295472150087762,2.0013872616610552e-07,36.18299999999999,0.016763054614241494,-1.2465281159202306e-05,72.73433333333332,0.1655432135593472,0.6099999999999994,0.00012947920179014747
S013,13586.0,13615.984375,R,-0.013531249999999998,2.165340747112743,-5.42,6.58,12.0,-0.03,79.97897825610568,750.0,794.140625,0.0,0.4196236222795376,0.33653249956562725,63.70486208582168,0.2756143920513978,64.41273166075166,0.13020833333333334,105,0.3225478666666666,0.0010671994731799514,-1.690438826616433e-07,36.169999999999995,0.012649110640674933,8.333335593900307e-07,72.09266666666666,0.5667270556057447,2.049999999999997,-0.0009366669207538316
S013,13616.0,13645.984375,R,0.0003541666666666536,1.866889648024035,-3.82,5.06,8.879999999999999,0.20500000000000002,70.52193802795209,1078.125,1072.9817708333333,0.0,0.41480835601783894,0.3860847250676405,63.745490912748544,0.31769475815279985,64.41273166075166,0.18229166666666666,141,0.32266527500000003,0.001218386138590038,-5.4154745593192835e-08,36.163666666666664,0.010482790129011793,-7.048613023169546e-06,69.29666666666665,1.1145233161411305,3.799999999999997,-0.001996875541687158
S013,13646.0,13675.984375,R,-0.00801562500000001,2.0257472051910113,-4.75,4.43,9.18,0.215,123.20495999736292,906.25,946.0123697916666,0.0,0.43714147015646504,0.3763632627602694,63.72694661952123,0.31659577701589614,64.41273166075166,0.17083333333333334,134,0.32255855833333336,0.0009541359162075569,-2.1708143909544062e-07,36.15166666666665,0.007340905181846953,-1.9791672035497373e-06,64.26933333333334,1.4476830530962996,4.289999999999999,-0.002538125688510658
S013,13676.0,13705.984375,R,0.030921875000000012,2.155723832937903,-5.07,4.84,9.91,0.08,94.42752861174661,890.625,845.0520833333334,0.10703853634971328,0.4732137007708274,0.42018824319847664,63.73473412114398,0.3569544888145524,65.49809157525127,0.209375,147,0.32281470000000007,0.0010233066142005883,4.005556642132329e-07,36.14166666666666,0.013682917167848118,-6.14583500049717e-06,65.15433333333334,1.7863886910623785,5.840000000000003,0.003193368921812317
S013,13706.0,13735.984375,R,-0.027265625000000005,4.374011908927931,-23.53,29.43,52.96,-0.06,0.0,562.5,562.5,0.0,0.49881695979086355,0.49997287252798917,63.91044979995084,0.4034100907215817,64.41273166075166,0.2791666666666667,181,0.32314560833333333,0.0009780332671219386,6.724936720089244e-08,36.12866666666667,0.013597385369580654,-1.3888892656492839e-06,74.28333333333333,2.7327011464036004,8.36,0.004761945736204897
S013,13736.0,13765.984375,R,0.017984374999999986,1.8827105210323385,-4.37,4.37,8.74,0.15,78.71370397459432,859.375,855.95703125,0.0,0.4938587696649721,0.4999121016488799,63.93324074186889,0.40709733754343236,64.41273166075166,0.3177083333333333,189,0.32323100833333335,0.0010990902790932215,6.83192459633364e-08,36.114000000000004,0.012000000000000217,-3.3333342375586618e-06,77.04833333333333,0.27008743440268096,0.8700000000000045,-0.00048135429724237776
S013,13766.0,13795.984375,R,0.0016354166666666596,1.9881949865591637,-4.78,4.58,9.36,0.15,63.25418445548462,796.875,811.0677083333334,0.0,0.49914858064063006,0.4841229182759271,63.81997632447081,0.39554427984373686,64.41273166075166,0.21875,155,0.322505175,0.0009351586288120746,1.0230319615429812e-07,36.10933333333334,0.01209223809814432,-1.1041669661911157e-05,74.21533333333333,1.2202478801001413,3.3900000000000006,-0.0020161116580164
S013,13796.0,13825.984375,R,-0.004932291666666688,2.0660927031272296,-4.72,4.62,9.34,0.22,90.09860247592388,765.625,800.5696614583334,0.0,0.4946545862743236,0.4535689874637472,63.728484238339995,0.3723305211542732,64.41273166075166,0.28958333333333336,190,0.32260124166666665,0.0010690157388600803,2.1322640332747587e-07,36.11600000000001,0.014742229591664203,1.8402782769852827e-05,74.79133333333333,0.6099657549586064,1.9500000000000028,0.0008486113413116692
S013,13826.0,13855.984375,R,-0.011348958333333341,2.0097360168426968,-5.09,5.21,10.3,0.28,88.26192308570002,906.25,895.3776041666666,0.0,0.49895615865914406,0.41758232721225164,63.691600103672634,0.35336652432573906,64.41273166075166,0.225,161,0.32294283333333335,0.000920689862126342,4.0112207061688237e-07,36.133,0.012948616399702462,1.0590280650573846e-05,73.06833333333334,0.828102583554048,2.9499999999999886,-0.0014837851247246976
S013,13856.0,13885.984375,R,0.03695833333333333,1.9110827042361498,-4.61,4.6,9.21,-0.005,65.71348522149891,750.0,756.2255859375,0.0,0.49975579974123363,0.4311933839647821,63.7210929734021,0.3497288593234232,64.41273166075166,0.246875,183,0.3234658083333334,0.0010553067349972464,2.6627763299632236e-07,36.15099999999999,0.009433981132054728,5.451390367672084e-06,71.57766666666666,0.4310891890188024,1.5,0.0006185765566885197
S013,13886.0,13915.984375,R,-0.028859375000000007,1.9986058164108487,-5.21,5.03,10.24,0.095,59.203840921533946,843.75,843.2698567708334,0.0,0.4928294424798503,0.4359782562589052,63.69977235064639,0.36148187021173384,64.41273166075166,0.2552083333333333,166,0.3231883,0.0010010172958878677,-2.6707038494749888e-08,36.16099999999999,0.009433981132057113,4.201390028588556e-06,73.53266666666667,0.3221069525621709,1.1200000000000045,0.0005013195804360831
S013,13916.0,13945.984375,R,0.021531250000000016,1.9443269103831546,-4.93,4.62,9.55,0.385,66.29926802897764,890.625,920.9554036458334,0.0,0.493692858859523,0.4535689874637472,63.72671624866652,0.381076757721906,64.41273166075166,0.28958333333333336,197,0.3230602166666667,0.0010226816886934505,-5.258968440475382e-07,36.163666666666664,0.010482790129011793,-7.048613023169843e-06,71.12100000000001,1.574948358941757,5.019999999999996,-0.0028372577140998575
S013,13946.0,13975.984375,R,-0.03655208333333335,1.909589721258817,-4.25,6.75,11.0,-0.09,76.05482666894578,812.5,809.5784505208334,0.0,0.49826086429589156,0.439992897669951,63.71694775626118,0.3601878573048673,64.41273166075166,0.2625,186,0.32301753333333333,0.0008461676344292242,8.117102896349361e-08,36.15499999999999,0.009219544457291695,3.437500932481542e-06,68.80533333333332,0.7505319594942116,2.339999999999989,0.001263125342644676
S013,13976.0,14005.984375,R,0.024562499999999998,2.3026294336244706,-6.37,14.18,20.55,0.35,57.663996014466754,875.0,862.0686848958334,0.0,0.49727992759500056,0.4496092053105675,63.72800203134749,0.37093183457665774,64.41273166075166,0.28125,179,0.3229001083333333,0.0008991301981714826,-4.645172701055996e-07,36.145666666666656,0.01085766498326606,-3.229167542633782e-06,72.15366666666665,1.2547389724117486,3.6700000000000017,0.0022239242143891652
S013,14006.0,14035.984375,R,0.024947916666666646,2.079923400381368,-4.94,4.44,9.38,0.43,58.81720763718245,843.75,860.693359375,0.0,0.49994682877004254,0.42934361238988983,63.71646649832482,0.3512197334766891,64.41273166075166,0.24375,177,0.323198975,0.000932408239117927,2.6544820568798815e-07,36.142666666666656,0.01062491830033737,-8.54166898374097e-06,71.68333333333334,1.6376229385572523,4.939999999999998,-0.002943125798373969
S013,14036.0,14065.984375,N1,-0.024255208333333566,99.62414731738545,-647.99,346.29,994.28,0.01,44.517351327627644,859.375,858.4635416666666,50.909761011774954,7.6766487750144305,23.92212617347635,64.4332569803605,2.31552259821067,95.57196241576293,0.04583333333333333,19,0.35424560833333335,0.03595150809198779,1.3921656771282747e-05,36.14399999999999,0.011135528725657828,-7.847224350916503e-06,68.85033333333334,0.3377028608439997,1.1199999999999903,0.0003317014788686735
S013,14066.0,14095.984375,N2,0.027177083333333293,9.695940868363842,-24.5,23.83,48.33,1.565,125.69453249390237,937.5,979.1015625,0.4970573128143496,0.032258047015004204,0.24762544169571915,64.96213525465522,0.48749340769813143,65.58200972827838,0.44479166666666664,255,0.35224967500000004,0.0015007979608778158,-1.9440697547932327e-06,36.10000000000001,0.023523038352503283,-3.326389791229868e-05,68.46433333333334,0.3470896458009402,1.2000000000000028,-0.0005597570962882756
S013,14096.0,14125.984375,N2,-0.05461979166666668,8.158968075913458,-20.31,14.52,34.83,1.82,56.543502263385356,890.625,880.0862630208334,0.49434299833212964,0.045595976308831845,0.46005358987356626,64.96174749529692,0.4900126093133495,65.58200972827838,0.4239583333333333,233,0.34879185000000007,0.0013979757606982974,-1.3988124454243726e-06,36.035999999999994,0.026025628394590584,-4.1666677969475506e-05,66.68233333333333,1.0435761698228936,2.8599999999999994,-0.0017323268588126243
S013,14126.0,14155.984375,N2,0.03353645833333333,6.9695888242334005,-14.81,12.49,27.3,1.7850000000000001,45.466963626221805,906.25,889.7867838541666,0.49716972391226727,0.03225804701500421,0.49335427179664715,65.00676759304834,0.49091795315908987,65.58200972827838,0.446875,234,0.3449923833333333,0.0013027297761708785,-1.588693139293933e-06,35.96900000000001,0.01885912687975367,-2.857639664073199e-05,66.89766666666667,0.5547833410941214,1.9399999999999977,0.0009979516596006035
S013,14156.0,14185.984375,N2,0.029984374999999983,7.511356544271648,-15.47,14.01,29.48,0.885,48.72447494920728,828.125,836.376953125,0.493692858859523,0.09090593428863095,0.4416654382844553,64.99289191590357,0.48951548257155864,65.58200972827838,0.41875,237,0.34184397499999997,0.0013078968770670295,-1.6891538870317754e-06,35.90733333333333,0.024073960113691173,-3.70833433928347e-05,68.59166666666667,0.6553629189659379,1.9300000000000068,0.0011503822565056016
S013,14186.0,14215.984375,N2,-0.1076614583333333,7.19890974094732,-14.68,14.55,29.23,0.46499999999999997,43.2692307647024,828.125,823.9176432291666,0.4944999139843763,0.11110243021644485,0.39361218928731806,65.00345174511985,0.48756492204662794,65.58200972827838,0.4197916666666667,238,0.3390264666666667,0.0010863439597516423,-9.270384459197121e-07,35.849333333333334,0.01948218559493584,-3.034723045443436e-05,70.78133333333332,0.842787965953214,2.4000000000000057,0.001499305962268328
S013,14216.0,14245.984375,N2,0.08346354166666667,6.736510304066623,-14.33,13.41,27.740000000000002,0.825,37.362821773015426,812.5,805.9000651041666,0.4951051638428839,0.1682735042192389,0.33653249956562725,65.00952171283772,0.4869154629724737,65.58200972827838,0.4114583333333333,246,0.33652905000000005,0.0016093976401643762,-2.367143437267644e-06,35.82233333333333,0.011160446028521042,-9.895836017750339e-06,73.00633333333334,0.365526864797772,1.3900000000000006,0.0006344098943169196
S013,14246.0,14275.984375,N2,-0.006729166666666683,6.603942180431521,-12.97,12.4,25.37,0.595,69.85681965764908,796.875,813.3219401041666,0.49418383718061387,0.16232629604869594,0.24762544169571915,65.00928456911664,0.4864872162902131,65.58200972827838,0.4114583333333333,238,0.3337113916666667,0.0013094342435815058,-1.0704822782341176e-06,35.79866666666667,0.01334998959633437,-1.2986114633820581e-05,74.62233333333333,0.4676799713004138,1.5,0.0006042015527890504
S013,14276.0,14305.984375,N2,0.021744791666666683,5.837291228196977,-14.42,11.57,25.990000000000002,0.925,53.75997751371099,859.375,855.3873697916666,0.49418383718061387,0.16532992583014122,0.2900232719350102,65.00678061126725,0.48812521470907355,65.58200972827838,0.4114583333333333,243,0.3326762833333333,0.0010191506773071111,-5.527583964730881e-07,35.775999999999996,0.010519822558705006,-6.319446158703385e-06,73.71066666666665,0.6672027844333052,2.0799999999999983,-0.0011479864225223588
S013,14306.0,14335.984375,N2,-0.07304166666666667,6.200522719760317,-14.13,15.23,29.36,0.445,38.510379464149814,828.125,829.6305338541666,0.49300664859163457,0.20453835214941965,0.24762544169571915,64.99898358085782,0.48288209952488276,65.58200972827838,0.3927083333333333,248,0.33100060000000003,0.0012356277783647821,-1.3296683294456288e-06,35.751999999999995,0.013012814197297457,-1.2291670000997472e-05,71.33166666666666,0.5579491215354874,1.7399999999999949,-0.0007404515897492382
S013,14336.0,14365.984375,N2,0.05840625000000003,6.206890531024984,-12.72,12.9,25.62,0.56,32.74873866013396,828.125,825.87890625,0.49093231705659346,0.2304038573895845,0.26836818808308854,64.9843359990045,0.48156837709779543,65.58200972827838,0.3770833333333333,240,0.3283646166666666,0.0012071111809007313,-1.1381990934784842e-06,35.728,0.010770329614268317,-7.63889096107583e-07,71.975,0.4099817069089791,1.2999999999999972,0.0007353821439296183
S013,14366.0,14395.984375,N2,0.003223958333333332,5.660289834658881,-11.63,10.87,22.5,0.8,78.36262444447921,859.375,877.4332682291666,0.4975973086716026,0.3013838885273878,0.22219509383022437,65.0226305320593,0.490766772146602,65.58200972827838,0.3927083333333333,248,0.3268275666666666,0.001229663034692388,-1.1138627153490494e-06,35.717,0.017916472867168128,-4.131945565306233e-06,71.66733333333332,0.6396662324125671,1.8499999999999943,-0.0011477780891325099
S013,14396.0,14425.984375,N2,0.003932291666666658,5.780082459186799,-11.78,12.56,24.34,0.51,39.91899470427205,812.5,820.3206380208334,0.4999826385874701,0.3108009366495253,0.23437268517375387,65.064435400348,0.48997894574662937,65.58200972827838,0.41875,246,0.3267314583333334,0.0010483047576590318,-1.712255238784519e-07,35.69766666666666,0.01584999123729193,-1.0798614040423231e-05,70.854,0.08950232771647271,0.25,0.00012597225639438708
S013,14426.0,14455.984375,N2,-0.02457812500000001,5.815015927638389,-11.92,11.04,22.96,0.335,50.47104732191244,812.5,814.4856770833334,0.49964831381682845,0.3094837070518504,0.2200827456448041,65.08759662211934,0.4922051973301752,65.58200972827838,0.4479166666666667,250,0.3257175416666667,0.0012390525338326905,-1.085849469902736e-06,35.672666666666665,0.01388844443733464,-1.1527780904889641e-05,72.20233333333333,0.6277774729596115,2.319999999999993,0.0010873266838451294
S013,14456.0,14485.984375,N2,-0.050270833333333355,5.8785217573510185,-11.74,12.22,23.96,0.245,30.641297612212547,796.875,794.0836588541666,0.4997221450188317,0.3487079325484613,0.2363252195069329,65.07825803704692,0.49214414914446425,65.58200972827838,0.42083333333333334,231,0.3251839083333333,0.0012148094363303272,-9.318693934107439e-07,35.66599999999998,0.010198039027186792,2.2916672883211914e-06,73.97066666666666,0.41177609881530935,1.4399999999999977,0.000727083530567364
S013,14486.0,14515.984375,N2,0.019994791666666675,5.8833923347466985,-11.74,12.45,24.189999999999998,0.185,43.49110537852227,804.6875,814.0055338541666,0.4990866223384697,0.36407553922762903,0.22634628092568448,65.0888773945879,0.4963595930759981,65.58200972827838,0.0,0,0.32392467500000005,0.0010606874748836197,-8.217079051941991e-07,35.66966666666666,0.01224291178147283,-5.729168220803845e-06,74.824,0.21281603949577213,0.6099999999999994,0.00026159729318502896
S013,14516.0,14545.984375,N2,-0.005640625000000002,5.704929703592582,-12.35,11.83,24.18,0.515,38.83613611238441,828.125,833.30078125,0.49960813637345375,0.38608472506764047,0.22219509383022437,65.07411069254654,0.49340744576179907,65.58200972827838,0.40625,246,0.3235725083333333,0.0010670469608209433,2.812923940137771e-07,35.676,0.016248076809273468,4.236112260230692e-06,74.045,0.6658666032572385,1.9599999999999937,-0.0011831600431749232
S013,14546.0,14575.984375,N2,0.04429687500000002,5.556731027677025,-11.23,11.31,22.54,0.57,41.80829376442882,843.75,848.9013671875,0.4999305507323548,0.3976370636334093,0.23239907830544904,65.0597252353339,0.4882645828409317,65.58200972827838,0.37395833333333334,241,0.3230815583333334,0.0010682271122115787,-3.5913225887919405e-07,35.67533333333333,0.013097921802927088,6.250001695422148e-06,72.63433333333334,0.26328290656419207,0.7999999999999972,-0.00045517373458489016
S013,14576.0,14605.984375,N2,-0.04813020833333334,5.424462271134574,-11.73,10.28,22.009999999999998,0.435,59.624896724957146,828.125,834.6354166666666,0.49851232675888324,0.4148083560178389,0.19249988726547923,65.01091445622727,0.4913432931929689,65.58200972827838,0.34270833333333334,215,0.3228040416666667,0.0010173720508892315,-1.3736049733086307e-07,35.68733333333333,0.017307673314330717,-1.2430558927561157e-05,71.98700000000001,0.1667163259352036,0.5,0.00016559032269702716
S013,14606.0,14635.984375,N2,0.06334375,5.359150562993723,-11.37,10.76,22.13,0.345,67.09156086621596,812.5,824.2594401041666,0.49738792532980625,0.41962362227953753,0.19982631347136334,65.09668378471014,0.49253788360928824,65.58200972827838,0.0,0,0.3223023583333333,0.0008827235863681071,1.9323030415318827e-07,35.681,0.01700000000000123,-4.826390198131316e-06,72.56266666666667,0.3292206284882855,0.9899999999999949,0.0005776390455835077
S013,14636.0,14665.984375,N2,0.009197916666666658,5.484068192500496,-11.4,11.95,23.35,0.185,44.33661790382636,828.125,831.8277994791666,0.4990224819584785,0.44755799593150186,0.21794494717703364,65.06727017873044,0.491953407106046,65.58200972827838,0.36354166666666665,228,0.3222063166666666,0.0010136580454253668,3.4798099717366927e-07,35.670333333333325,0.012242911781472835,-4.687501271566524e-06,73.04866666666666,0.11134730451260245,0.3400000000000034,0.00012604170085766712
S013,14666.0,14695.984375,N2,-0.059999999999999984,5.093975577827204,-10.81,9.81,20.62,0.74,56.112275649199354,875.0,876.3102213541666,0.4990224819584785,0.43886196735293537,0.1899835519196333,65.0715621838449,0.4874713195049647,65.58200972827838,0.3625,221,0.32208894166666663,0.00114546104470234,-7.239882606305043e-07,35.670666666666655,0.012631530214332358,-7.2916686446590985e-06,71.48066666666666,0.7775557143310631,2.430000000000007,-0.0013893059324289105
S013,14696.0,14725.984375,N2,0.045687499999999964,5.245004701524148,-10.65,11.11,21.759999999999998,0.5,37.97108081837578,812.5,814.84375,0.49716972391226727,0.4675911601554883,0.15323125565084084,65.08221312475945,0.4908680576844967,65.68104749469211,0.36041666666666666,238,0.3219395166666666,0.0011098854744472115,1.3979040250390746e-07,35.670333333333325,0.014487542541401936,-1.0243058334163907e-05,70.59266666666666,0.10023084466481491,0.3499999999999943,0.00016277782193408795
S013,14726.0,14755.984375,N2,-0.046989583333333355,5.207413695465804,-10.37,10.25,20.619999999999997,0.325,57.847977827046705,859.375,850.9521484375,0.49960813637345375,0.4851796631718559,0.13928372696486196,65.0390166296179,0.49293257039079524,65.58200972827838,0.3072916666666667,206,0.32239840000000003,0.0008550169043163308,9.953040894379725e-08,35.66266666666665,0.010306416555827608,2.083333898473432e-06,71.27400000000002,0.17442476888332115,0.5999999999999943,0.00013652781481331762
S013,14756.0,14785.984375,N2,0.012281250000000025,5.103872468126377,-11.27,10.23,21.5,0.815,48.216464468871244,843.75,849.5198567708334,0.4963364044565831,0.48858053327982687,0.12827311899051785,65.07634442529462,0.4901322002867071,65.68104749469211,0.3260416666666667,224,0.32133121666666664,0.0011138939595201935,-6.13095218396061e-07,35.65866666666666,0.010561986345169718,-2.083333898473506e-06,71.47533333333334,0.2380858855305978,0.6500000000000057,-0.00036812509986032435
S013,14786.0,14815.984375,N2,-0.020760416666666646,5.068262856255566,-10.33,10.16,20.490000000000002,0.53,56.38777966131301,843.75,845.5240885416666,0.4944999139843763,0.4892496646651891,0.13591255358583412,65.08879383357845,0.4883652559835516,65.68104749469211,0.33125,216,0.32148059999999995,0.0010322185524393656,-2.3124094814479168e-07,35.65833333333332,0.005821416398857383,-2.74305629965732e-06,71.37933333333332,0.35815204716557014,1.0300000000000011,0.0005613195967121292
S013,14816.0,14845.984375,N2,0.049302083333333316,5.218038188222242,-10.56,11.44,22.0,0.45999999999999996,79.29109532465638,843.75,856.0221354166666,0.4970573128143496,0.49716972391226716,0.08507936450096987,65.06065657347565,0.48790322974133876,65.58200972827838,0.2864583333333333,198,0.32146993333333335,0.0011747604843352424,1.8983121468945516e-07,35.657999999999994,0.008717797887081404,-1.0416669492364818e-06,71.19399999999999,0.2295880368544187,0.6799999999999926,0.000189027829054856
S013,14846.0,14875.984375,N2,0.00017187500000000097,4.76930250421474,-10.19,10.11,20.299999999999997,0.3,66.72563924764704,828.125,855.7454427083334,0.49705731281434967,0.49975579974123363,0.12801909579781015,65.05266075282768,0.48763440285450915,65.58200972827838,0.2625,196,0.322195625,0.0010799298130164236,4.126954244506338e-09,35.657999999999994,0.007483314773547787,2.3611117516039354e-06,71.18733333333333,0.14870403117901274,0.46999999999999886,0.00010680558452842292
S013,14876.0,14905.984375,N2,-0.005984375000000009,4.611718087492541,-9.46,10.08,19.54,0.41,60.40294918999766,843.75,841.9352213541666,0.49851232675888324,0.4973879253298062,0.1015291077584267,65.02512880665365,0.4866110816319518,65.58200972827838,0.21458333333333332,170,0.3217473916666666,0.001089963350269438,-2.136925492872628e-07,35.652333333333324,0.008825468196580729,-2.6736118363742067e-06,70.25633333333333,0.4881767667101287,1.5100000000000051,-0.0007996877169291766
S013,14906.0,14935.984375,N2,-0.019619791666666688,4.9627030196951765,-10.32,9.2,19.52,0.65,70.29406223387,859.375,856.4046223958334,0.4994745502914926,0.4990866223384697,0.08507936450096987,65.01411976077695,0.4891132091374289,65.58200972827838,0.221875,169,0.32259058333333335,0.0009808134938520336,-4.508564591082008e-07,35.64066666666666,0.012092238098142898,-3.680556553970007e-06,70.26833333333335,0.2435444289834781,0.7299999999999898,-0.0002328820076177312
S013,14936.0,14965.984375,N2,0.014135416666666678,4.924341187153431,-9.71,11.22,20.93,0.355,84.92991966459356,828.125,833.5205078125,0.4994745502914926,0.4958114490968876,0.07880950133074056,65.00761506934768,0.4868945767326968,65.58200972827838,0.19895833333333332,153,0.32208894166666663,0.001226148878235119,-7.590182180496524e-07,35.64166666666666,0.011571036638471534,-1.6319448871367872e-06,71.58766666666666,0.597414893985374,1.8200000000000074,0.001068507234295582
S013,14966.0,14995.984375,N2,-0.029307291666666672,4.820854878518799,-9.84,9.17,19.009999999999998,0.54,49.13326893681033,859.375,848.3154296875,0.49228421668788036,0.49434299833212964,0.07880950133074056,65.06868546280674,0.48468767502678595,65.58200972827838,0.23333333333333334,179,0.32156596666666665,0.0011641643421594638,3.8963074805521786e-07,35.645666666666656,0.00989388138643525,-3.020834152786441e-06,72.00266666666667,0.23520109599139916,0.7400000000000091,5.5138903846274666e-05
S013,14996.0,15025.984375,N2,-0.018947916666666658,4.740148340395477,-9.9,10.18,20.08,0.18,72.97590438037265,828.125,840.3727213541666,0.49859176687947826,0.4944999139843763,0.10197698542100346,65.02026868242746,0.48848623140998104,65.68104749469211,0.20625,151,0.3221209666666667,0.001157168238512553,-6.509289960202432e-07,35.646999999999984,0.008999999999998209,3.5763898590460163e-06,71.72766666666666,0.1475055554509356,0.5,-0.00016968754603069257
S013,15026.0,15055.984375,N2,0.046197916666666665,4.541178045855759,-10.01,9.92,19.93,0.815,53.41972179275494,828.125,835.2376302083334,0.49817265908908415,0.48902894142939585,0.08507936450096985,65.019227783422,0.48949134907245173,65.58200972827838,0.19583333333333333,153,0.3214699166666667,0.0010903252770261907,4.6503875462206313e-07,35.64966666666666,0.012512216252747057,-1.4236114972897917e-06,71.30433333333333,0.2469505123613956,0.7999999999999972,-0.00025600701389079275
S013,15056.0,15085.984375,N2,0.023526041666666674,4.659258492769727,-9.55,9.35,18.9,0.325,63.4103888513508,843.75,847.9166666666666,0.49789487400008003,0.4818944098266986,0.08507936450096987,65.01668814912848,0.4873948970198647,65.58200972827838,0.178125,148,0.32139523333333325,0.001030421659106395,-4.7196193358342864e-07,35.649999999999984,0.010954451150101144,8.333335593893632e-07,71.50666666666666,0.21938297310613933,0.769999999999996,-0.00026104173747876913
S013,15086.0,15115.984375,N2,-0.005479166666666664,4.683841759129569,-9.83,10.12,19.95,0.425,56.10389041655558,875.0,861.7106119791666,0.4984306970103488,0.4892496646651891,0.08507936450096987,65.01635735231598,0.4919620269367484,65.58200972827838,0.20208333333333334,155,0.3210003916666666,0.0011064435540342294,2.3756972590324678e-07,35.650333333333315,0.009122621455600858,5.208334746183523e-07,70.696,0.21914378841299476,0.6099999999999994,-0.0003869445494098688
S013,15116.0,15145.984375,N2,-0.029401041666666648,4.710516636739426,-8.85,10.1,18.95,0.36,60.713474673865555,859.375,860.0992838541666,0.4986690184185855,0.47530029798422063,0.0789470638395684,65.00359268560624,0.48906846534914483,65.58200972827838,0.165625,135,0.321630025,0.0011204851364662043,7.45990436737866e-07,35.65099999999999,0.006999999999998608,-6.597224011832457e-07,69.94133333333333,0.3282857833588836,0.9200000000000017,-0.0005650695977293833
S013,15146.0,15175.984375,N2,-0.025437500000000023,4.575099852763917,-10.16,10.2,20.36,0.52,43.44082533734348,875.0,855.859375,0.49789487400008003,0.4795107460271934,0.08507936450096987,65.01511502466727,0.4835045631816187,65.58200972827838,0.16354166666666667,132,0.32111776666666664,0.0010154526226707488,-5.000782606549418e-08,35.655333333333324,0.010241527663824483,6.319446158703879e-06,70.05466666666668,0.15145369662778874,0.539999999999992,0.0002327083964595269
S013,15176.0,15205.984375,N2,0.017307291666666665,4.645375600322522,-9.54,9.55,19.09,0.33,75.94081513852441,812.5,813.2486979166666,0.4979896651510171,0.47461492980859993,0.10172129679778086,65.01095776691253,0.491972453884484,65.68104749469211,0.17604166666666668,145,0.32118179166666666,0.00104793820504705,-6.342143647499939e-07,35.663666666666664,0.012242911781471714,7.951391045842565e-06,69.98066666666665,0.1760290380085695,0.5499999999999972,0.00025548618041617394
S013,15206.0,15235.984375,N2,-0.0001562500000000207,4.614724810836786,-8.95,9.54,18.49,0.52,56.12496265918949,843.75,851.9694010416666,0.49670681989535387,0.4724977494802371,0.045595976308831845,65.02257050183975,0.4794879212351028,65.58200972827838,0.15,124,0.3212564666666667,0.0009350674390414683,-4.4269282842145076e-07,35.67433333333334,0.011455226851627809,1.0243058334164202e-05,70.95266666666666,0.3317422024537856,0.9500000000000028,0.0005659723757520543
S013,15236.0,15265.984375,N2,-0.012718749999999997,4.448335620869725,-9.82,9.39,19.21,0.15000000000000002,55.960950997092816,828.125,835.44921875,0.49859176687947826,0.45825756949558394,0.11110243021644485,64.99528316965088,0.4880222299213024,65.58200972827838,0.140625,119,0.3210217416666667,0.001127240919944461,-1.5708402698676783e-07,35.68933333333333,0.017113996870658458,1.5555559775272206e-05,71.238,0.19893717601293162,0.5799999999999983,0.00030472230488343805
S013,15266.0,15295.984375,N2,0.03964062499999999,4.50868643403297,-8.99,9.33,18.32,0.35,59.25281679903864,812.5,827.2379557291666,0.4975973086716026,0.4540507784103008,0.08507936450096985,65.00513426556107,0.4854318864441942,65.58200972827838,0.13541666666666666,117,0.32088300833333333,0.0009617368446014194,3.0175767734311935e-07,35.715999999999994,0.013564659966249094,1.1250003051757093e-05,71.48466666666667,0.30331208716802294,1.0200000000000102,0.00038715288279971905
S013,15296.0,15325.984375,N2,0.019755208333333347,4.5139361048675735,-9.44,9.21,18.65,0.185,43.6402867691792,828.125,835.1725260416666,0.496208497774765,0.4491009054365053,0.07880950133074056,65.01540914843271,0.4880982775612036,65.58200972827838,0.14375,118,0.32122444166666664,0.0009493976669081122,5.546227632982797e-07,35.724,0.012806248474864593,1.875000508627078e-06,72.62633333333333,0.16692280318225577,0.6099999999999994,2.7048618448516647e-05
S013,15326.0,15355.984375,N2,0.00013541666666665452,4.5792482418874165,-10.24,9.67,19.91,0.07,47.10421926030661,828.125,832.6578776041666,0.49352469367184537,0.45780153807505813,0.11557806855349138,65.03671079961322,0.4875517416709903,65.58200972827838,0.1625,137,0.3216299916666666,0.0010447428431264365,-5.330042678505546e-07,35.733333333333334,0.01043498389499959,6.944446328217669e-08,72.48733333333332,0.22584557162411079,0.6499999999999915,-0.00028569452194404134
S013,15356.0,15385.984375,N2,0.0005260416666666841,4.415817188474876,-9.33,8.73,18.060000000000002,0.48,55.00255838859472,843.75,852.294921875,0.4919093680637611,0.42809331796804406,0.08507936450096987,65.03538279962532,0.4873661589242881,65.58200972827838,0.13958333333333334,120,0.3213311916666666,0.0009114420286541771,2.8620862798628407e-07,35.73799999999999,0.013266499161423173,6.111112768857228e-06,71.98299999999999,0.26298479043473366,0.7000000000000028,-0.0004048264987051073
S013,15386.0,15415.984375,N3,-0.004598958333333295,4.471670146786945,-9.22,9.12,18.34,0.3,49.290099056981326,867.1875,868.0257161458334,0.4924682290231749,0.42809331796804406,0.09090593428863095,65.0322679101982,0.48408551882715367,65.58200972827838,0.128125,105,0.32120314999999994,0.0010533462761599416,5.924502475179734e-07,35.73466666666666,0.015216949614018612,9.236113616567834e-06,71.58500000000001,0.21948044711697223,0.8699999999999903,-0.00036635426604661925
S013,15416.0,15445.984375,N3,-0.03678124999999998,4.432586429179744,-9.5,9.08,18.58,0.44,47.88332276561606,875.0,863.1754557291666,0.49171852657287596,0.42029668753816696,0.07880950133074056,65.03415121753905,0.47850504796826754,65.58200972827838,0.11145833333333334,98,0.3218008083333333,0.0011057810233483154,-3.446240084158059e-07,35.742666666666665,0.014126413400279474,-9.375002543133148e-06,70.50933333333333,0.15246711849517805,0.6500000000000057,-0.00022152783787105233
S013,15446.0,15475.984375,N2,-0.03643229166666666,19.02563347966914,-145.8,68.49,214.29000000000002,0.785,49.18876959328099,812.5,830.7454427083334,1.2846246209172025,2.129773030095513,7.1543946982441415,65.02175964223352,1.146072144738152,78.19207120929845,0.036458333333333336,20,0.3240526833333333,0.00271412724764129,2.503890870196091e-06,35.745333333333335,0.01231079020841485,-8.958335763438835e-06,69.92666666666668,0.1571057676287611,0.6299999999999955,0.00012458336712873436
S013,15476.0,15505.984375,N2,0.07288541666666672,4.797934376222472,-10.92,10.37,21.29,0.765,187.92210696508377,921.875,919.8974609375,0.1682735042192389,0.42096609910683097,0.32301577780092,64.90972563201943,0.17205147280223154,65.94694837519019,0.030208333333333334,23,0.3239247166666667,0.0010078461703333223,-1.8924223883524207e-07,35.73533333333333,0.016275407487645638,-1.8194449380005805e-05,70.29566666666666,0.8609749641475587,3.1400000000000006,-0.001137118364018654
S013,15506.0,15535.984375,N2,0.02436979166666667,5.234090101074951,-11.01,7.95,18.96,1.4849999999999999,80.47508988409813,1078.125,1038.4684244791667,0.05581428468591173,0.24944382578492938,0.12801909579781012,64.90836484320454,0.07221529004336354,65.83312236253116,0.08645833333333333,71,0.3234337583333333,0.0011442802905162188,-4.5163836036196806e-07,35.70333333333333,0.018856180831641454,-9.305558079850355e-06,64.51733333333333,1.9992430789898674,6.669999999999995,-0.0036034037552636045
S013,15536.0,15565.984375,N2,-0.08339062500000001,5.062073471076726,-9.9,8.69,18.59,1.03,84.23677550771303,968.75,950.6266276041666,0.03225804701500421,0.1428261375083551,0.3,64.92864695316828,0.10691038691968281,66.15889962809237,0.1,76,0.3234231166666667,0.0011205892585550165,9.061981624886591e-08,35.68299999999999,0.018645821694596984,-1.2256947769355433e-05,58.860666666666674,0.8901458057843985,2.969999999999999,-0.0007466668692130197
S013,15566.0,15595.984375,N2,0.033869791666666656,4.879355273936895,-9.48,8.98,18.46,0.995,86.69719103484643,890.625,892.9524739583334,0.032258047015004204,0.09636964965693297,0.44858961076789206,64.9865336919622,0.15282463849444838,66.15889962809237,0.2791666666666667,176,0.3244475833333334,0.001088235395669924,-1.5898528618307407e-07,35.678666666666665,0.018571184369580163,-7.361113107941251e-06,62.51133333333333,1.489587713280273,5.210000000000001,0.0026727785028153473
S013,15596.0,15625.984375,N2,-0.008723958333333328,4.942317131886048,-9.55,9.81,19.36,0.87,64.55318967757465,859.375,857.2509765625,0.0,0.03225804701500421,0.4911323014219285,65.08855939755333,0.16220527480141908,65.22269543648132,0.0,0,0.32339106666666667,0.0011691254119592471,-8.16895186874773e-07,35.682,0.01600000000000126,-2.569445141451128e-06,67.46,1.2282155076912753,3.6200000000000045,0.00219382003955622
S013,15626.0,15655.984375,N2,0.03744270833333334,4.745101615948387,-9.49,8.83,18.32,0.6,56.02749509440112,843.75,840.869140625,0.0,0.03225804701500421,0.4126880358461529,65.15086810169709,0.13620668830147412,65.22269543648132,0.0,0,0.32300683333333335,0.0010313023508597707,4.977904996176481e-07,35.69066666666666,0.021746008573733978,1.0763891808781616e-05,69.99766666666667,0.5866042580441739,1.5799999999999983,0.0009680210959258623
S013,15656.0,15685.984375,N2,-0.01665625000000001,4.871275165293232,-10.3,9.23,19.53,0.96,60.76567898490123,906.25,896.9563802083334,0.03225804701500421,0.0,0.2732186624299299,65.19487096046772,0.09491460002748722,65.22269543648132,0.0,0,0.3237219666666667,0.000988320224196362,6.44479341492873e-08,35.69766666666667,0.01782943882708871,5.38194590439102e-06,70.74133333333333,0.4009715977749825,1.2199999999999989,-0.00042965289432858383
S013,15686.0,15715.984375,N2,0.023661458333333343,4.990360247097017,-9.6,9.4,19.0,0.81,64.10179638708553,843.75,860.6201171875,0.03225804701500421,0.0,0.11110243021644485,65.21759126142621,0.04741720024119674,65.22269543648132,0.0,0,0.323252325,0.0010893072887734616,-1.6111614613610716e-07,35.70533333333333,0.016878651868229035,8.541668983742748e-06,69.10766666666667,0.41015186889194605,1.269999999999996,-0.0006692710148847169
S013,15716.0,15745.984375,N2,-0.010609375000000002,4.731750842437935,-9.19,9.28,18.47,0.66,51.29407829918242,859.375,856.9742838541666,0.0,0.0,0.09636964965693294,65.21959721362335,0.03184796281411186,65.22269543648132,0.0,0,0.3231135916666667,0.0010766431666359498,-4.6339964827464453e-07,35.709999999999994,0.014142135623730146,8.472224520460105e-06,68.64966666666668,0.35026164823203537,1.210000000000008,0.0002594097925916315
S013,15746.0,15775.984375,N2,-0.0055520833333333386,5.021903659158612,-10.14,9.81,19.950000000000003,1.01,61.22602480104295,859.375,864.0869140625,0.032258047015004204,0.0,0.04564354645876384,65.2217363787054,0.033843955521933776,65.56675987114203,0.0010416666666666667,1,0.3224838416666666,0.0009147119764879923,-9.998049587145286e-09,35.71266666666667,0.01569146972791861,2.569445141450388e-06,69.992,0.22815784010198026,0.710000000000008,6.0416683055744855e-06
S013,15776.0,15805.984375,N2,-0.0037604166666666662,5.049071204284324,-9.73,8.86,18.59,0.855,89.27593719599155,906.25,900.1790364583334,0.045595976308831845,0.0,0.032258047015004204,65.22110741444514,0.04403748491713553,65.56675987114203,0.0010416666666666667,1,0.32301752499999997,0.0009946813892104675,1.7774527391093584e-08,35.724,0.01624807680927111,7.013890791528002e-06,69.86300000000001,0.6436414633422346,2.0799999999999983,-0.0008036460513362763
S013,15806.0,15835.984375,N2,-0.0008333333333333377,4.790064601744833,-9.56,9.71,19.270000000000003,0.695,79.83130110581047,875.0,868.2210286458334,0.03225804701500421,0.0,0.07198059875565235,65.2235142275007,0.03905314774017872,65.56675987114203,0.005208333333333333,5,0.3234871333333334,0.0011163275276050827,2.096124700554647e-07,35.730000000000004,0.010327955589886225,1.388889265651394e-07,68.364,0.10559671712068791,0.37999999999999545,6.472223977925104e-05
S013,15836.0,15865.984375,N2,-0.1179947916666667,5.044484012056094,-11.65,10.02,21.67,0.53,75.9553445467626,843.75,855.5501302083334,14.354695465283884,12.842637277765961,15.503573141857673,65.33547023468329,1.892495058421259,84.35045939412541,0.04583333333333333,16,0.3232203083333334,0.005481379044540756,-1.1548355997275388e-06,35.73466666666666,0.011175369742827509,-1.8750005086268315e-06,68.588,0.5589299300150836,1.5600000000000023,0.0009134030255542047
S013,15866.0,15895.984375,N2,0.013583333333333562,74.06578233987713,-710.05,391.3,1101.35,-0.135,105.4541558109341,812.5,882.6497395833334,7.754908559798325,2.5967093224994504,4.155781484662529,65.41594057585692,1.4984470547720028,84.69356528095862,0.036458333333333336,13,0.3425804,0.005910704842910027,-5.581670784958443e-06,35.748000000000005,0.015790292376437913,1.8750005086273981e-06,69.31233333333333,0.27559249304402744,0.8700000000000045,-0.00022447922756055423
S013,15896.0,15925.984375,N2,0.04049479166666665,9.097960835800764,-23.0,14.87,37.87,2.55,100.34477846161164,1031.25,1017.7815755208334,0.3707162736589204,0.2957874817753449,0.4627521366029071,65.25773063286881,0.28403517611053924,66.18912297349165,0.07395833333333333,45,0.335386925,0.001198834157021589,-1.0615551924791663e-06,35.71266666666667,0.0199888858007525,-2.3472228589470613e-05,65.28866666666666,1.8520434360157116,5.929999999999993,-0.003279792556367336
S013,15926.0,15955.984375,N2,0.05852604166666668,8.492250331451032,-19.49,14.05,33.54,2.34,77.05811784049334,953.125,954.3619791666666,0.2494438257849294,0.3197747009614738,0.48330527037784315,65.26968242275689,0.2810215278716958,66.18912297349165,0.09895833333333333,58,0.33442635000000004,0.0010658606979807386,-1.7929084724686536e-07,35.684333333333335,0.017641491496533126,-3.645834322328955e-06,61.751666666666665,0.8040898927082447,2.269999999999996,-0.0014305906658503332
S013,15956.0,15985.984375,N2,-0.055333333333333304,9.47880207870289,-21.41,16.01,37.42,2.01,68.59402109303511,937.5,925.1871744791666,0.2200827456448041,0.2870750936166354,0.48717938174762687,65.24656108008838,0.27916641803997155,66.18912297349165,0.08645833333333333,52,0.3344796916666667,0.0010499982682194654,1.447808552465463e-08,35.67399999999999,0.013564659966252028,-3.888889943817817e-06,62.53433333333332,0.9059568912972017,2.9200000000000017,0.0015901740424734284
S013,15986.0,16015.984375,N2,0.06619791666666666,9.108529594698348,-20.37,17.3,37.67,2.025,61.7183331181736,890.625,901.5380859375,0.2263462809256845,0.31340840191176894,0.4928294424798503,65.24821288533784,0.2830022431572941,66.18912297349165,0.09166666666666666,58,0.3348425833333334,0.0010948852876240262,-1.8510551896308325e-07,35.669999999999995,0.010000000000001563,1.3194448023669606e-06,63.74633333333334,0.4384174824170326,1.5100000000000051,0.0007080210253963287
S013,16016.0,16045.984375,N2,0.04076041666666667,8.711186776023487,-18.84,15.03,33.87,1.86,41.23842709609791,875.0,884.0413411458334,0.21794494717703367,0.3342289400620479,0.49817265908908426,65.2438951884661,0.2900700543823339,66.18912297349165,0.11458333333333333,63,0.33485325000000005,0.0012025183176012971,1.9763373416713778e-07,35.684,0.017435595774164005,4.652779039925424e-06,65.86733333333333,0.5968915777220808,1.789999999999992,0.0010429863940392766
S013,16046.0,16075.984375,N2,-0.10026041666666667,8.93458899183485,-18.79,15.02,33.81,1.375,43.575188906064334,859.375,868.1477864583334,0.22838645595544604,0.3081573258905262,0.49607837082461076,65.23387846118987,0.2894982625860121,66.18912297349165,0.09270833333333334,57,0.33500262500000005,0.0010544524097250616,-2.170814390954413e-07,35.69966666666666,0.015380362660079375,3.4375009324822825e-06,67.81099999999999,0.5101787268529842,1.6599999999999966,0.0008746877372742311
S013,16076.0,16105.984375,N2,0.006125000000000039,8.769089550624683,-17.83,14.57,32.4,1.58,51.60939495596886,843.75,856.3883463541666,0.1874276480775685,0.3388075878684275,0.4963364044565831,65.26009220926419,0.29501102522271766,66.18912297349165,0.12083333333333333,65,0.33517346666666664,0.001162119385242132,8.413891171302963e-07,35.72266666666666,0.012092238098143367,1.2708336780688724e-05,69.26933333333334,0.43788075494996914,1.4699999999999989,0.000749166869891185
S013,16106.0,16135.984375,N2,0.06137499999999999,8.757824583919705,-20.02,16.46,36.480000000000004,1.7149999999999999,69.78094673385051,843.75,856.5755208333334,0.16827350421923892,0.3121091305537215,0.4983468765578852,65.23407058245829,0.28757939689035833,66.18912297349165,0.10520833333333333,59,0.3358245583333333,0.0011946266906153402,-1.3734009801977676e-07,35.74666666666667,0.011642832797716395,4.652779039925671e-06,70.091,0.1522793485670328,0.5900000000000034,0.00018156254925199314
S013,16136.0,16165.984375,N2,-0.026656250000000055,8.961645308303378,-18.3,15.14,33.44,1.6949999999999998,57.01179288614135,859.375,865.2262369791666,0.15612494995995993,0.32953401179628716,0.4992659542323666,65.24079420296717,0.28907340374283647,66.18912297349165,0.115625,64,0.3359953416666667,0.0011769310337755115,-1.1683813933327086e-08,35.764,0.01171893055416541,5.069445819620031e-06,69.59933333333332,0.453114653138574,1.3200000000000074,-0.0007235418629399608
S013,16166.0,16195.984375,N2,0.05861979166666673,8.70067150911976,-16.66,13.88,30.54,1.755,44.22898577334043,859.375,874.6826171875,0.1356408400888169,0.327141382853041,0.4983468765578852,65.24760548139163,0.2850069203947839,66.18912297349165,0.11458333333333333,56,0.33664650833333337,0.0010497390469051003,4.6895824353251343e-07,35.779333333333334,0.016110727964792203,6.527779548550553e-06,69.31266666666667,0.19190159515288674,0.6200000000000045,-0.0002872223001362592
S013,16196.0,16225.984375,N2,-0.06810416666666665,9.264804175254648,-19.45,15.27,34.72,1.47,58.24992199511892,875.0,866.4794921875,0.11110243021644485,0.3247177593909654,0.4999609359740019,65.23123421444977,0.2916182314777646,66.18912297349165,0.11770833333333333,52,0.3368493416666667,0.0009781252944266526,3.3081541091997484e-07,35.8,0.017701224063135224,1.5486115311988105e-05,69.30066666666669,0.21217812223590715,0.6000000000000085,0.00031902786431962324
S013,16226.0,16255.984375,N2,-0.014369791666666631,8.715253463679113,-17.58,14.94,32.519999999999996,1.6549999999999998,50.45004798324819,890.625,889.94140625,0.11557806855349137,0.26506476868347145,0.4990224819584785,65.20713825063908,0.2812848414698419,66.18912297349165,0.07604166666666666,48,0.3368920166666667,0.0009477656090628229,9.844273503763241e-08,35.81933333333333,0.009977753031395193,5.972223842290435e-06,69.04866666666666,0.22266167659079109,0.980000000000004,-0.0003702084337587973
S013,16256.0,16285.984375,N2,-0.063140625,8.867315392602842,-18.4,16.66,35.06,1.6949999999999998,69.756007692731,859.375,863.5335286458334,0.09636964965693294,0.27161545721335933,0.4976986970603355,65.21993470465895,0.27709887529268146,66.18912297349165,0.07916666666666666,49,0.33708415833333333,0.0009441380724928709,-4.008132597692228e-07,35.82899999999999,0.008306623862917991,6.597224011841092e-07,68.34066666666668,0.10862575917136545,0.3499999999999943,6.291668373390998e-05
S013,16286.0,16315.984375,N2,0.07275520833333331,9.083128588812908,-17.68,15.29,32.97,1.9849999999999999,55.17706795451515,859.375,875.9440104166666,0.03225804701500421,0.285583892616902,0.4992083576774331,65.22066751022716,0.28127007258373676,66.18912297349165,0.08958333333333333,48,0.3380126833333334,0.0012167556518828566,8.74012389868807e-07,35.84133333333334,0.012840906856171216,9.72222485954242e-06,69.04366666666667,0.24762179943525894,1.019999999999996,0.00040552094333793005
