participant_id,window_start_time,window_end_time,sleep_stage,BVP_mean,BVP_std,BVP_min,BVP_max,BVP_range,BVP_median,SDNN,median_nni,IBI_mean,x_std,y_std,z_std,mag_mean,mag_std,mag_max,movement_density,burst_count,EDA_mean,EDA_std,EDA_trend,TEMP_mean,TEMP_std,TEMP_slope,HR_mean,HR_std,HR_range,HR_trend
S014,4743.0,4772.984375,W,-0.4062916666666668,35.869477347831506,-88.58,114.09,202.67000000000002,1.1800000000000002,25.88066686883111,796.875,803.1575520833334,7.679540185232265,3.823031759166699,0.9844047614548601,63.63211460125887,0.7308896671810212,68.1248853210044,0.06979166666666667,26,0.14751484166666667,0.001191873972615071,-5.62624935607894e-07,30.54866666666667,0.017838784213679154,-2.2361117176951883e-05,72.63766666666668,0.22880389468324558,0.7999999999999972,-0.00027663201948568034
S014,4773.0,4802.984375,W,0.31170833333333253,93.20415209533726,-836.5,570.37,1406.87,4.39,38.81823909588939,781.25,792.1630859375,6.884764530388014,12.121648976724682,3.7111937411532425,64.368916971903,3.5309386661705497,113.08403954581743,0.03333333333333333,13,0.14690645,0.0022528300048679567,3.1405082303896104e-06,30.52333333333333,0.018856180831641492,-2.0833338984738702e-05,73.92833333333331,0.7106714352560465,2.1300000000000097,0.0012698267333514364
S014,4803.0,4832.984375,W,-0.538234375,53.6147574042631,-308.69,164.06,472.75,2.66,20.305762844648264,812.5,807.2428385416666,3.4913360026404407,1.0789152699458018,0.8080299043902328,64.35940277911274,0.6077476855313716,69.8927750200262,0.071875,51,0.14956500833333333,0.0011429896069506552,-6.368289487925715e-07,30.49333333333334,0.01043498389500012,-7.152779718094005e-06,74.18566666666668,0.25738017708354355,1.230000000000004,-0.00034336814870012744
S014,4833.0,4862.984375,W,0.5858437500000001,71.54812600705499,-329.04,277.19,606.23,5.095,25.773352238529256,812.5,809.8795572916666,8.9149394136059,27.673177082108015,6.4807192673515965,65.01909814018005,1.9284606220948626,82.48030067840442,0.07083333333333333,28,0.15196728333333334,0.004848725343124269,6.190194387531027e-06,30.472,0.016613247725836066,-1.5625004238553593e-05,71.95733333333334,0.5818930791438891,2.0500000000000114,-0.0009187502492269558
S014,4863.0,4892.984375,W,-1.7284166666666663,71.43347494050944,-268.82,274.43,543.25,2.965,19.329769636429234,796.875,794.7184244791666,9.874894019737207,25.51182315436751,6.512136022964908,65.25836862489686,2.714450420203738,90.0,0.071875,24,0.1508995583333333,0.0037953339659724133,-2.5038732920663235e-06,30.472666666666672,0.013399834161494236,1.2500003390842666e-06,73.05833333333334,0.4537112395443694,1.9599999999999937,0.0007199654730809104
S014,4893.0,4922.984375,W,1.350036458333333,42.90262617555116,-150.16,306.83,456.99,5.915,19.756835269756696,796.875,790.8203125,1.5021382329310886,0.5568378214300821,1.0387746311760795,65.34729072004156,0.42122308068887837,66.76076692189807,0.15520833333333334,92,0.15780755,0.0012078798219055775,-6.423148443779387e-07,30.475333333333342,0.013597385369580772,1.472222621588172e-05,75.35133333333333,0.6309449703068851,2.049999999999997,0.001042847505112713
S014,4923.0,4952.984375,W,0.2309895833333334,36.00542505506254,-69.42,55.81,125.23,6.085,12.513630111527,781.25,785.595703125,1.3038138500397807,0.5495411201250852,0.9247741606813465,65.41444178010148,0.4266809085403031,67.23838189605696,0.09479166666666666,60,0.15837336666666665,0.0009104385017976445,2.0820708772978533e-07,30.489333333333335,0.013148721948878183,6.597224011833827e-06,75.336,0.1507005861523661,0.6200000000000045,-9.555558147666638e-05
S014,4953.0,4982.984375,W,-0.007770833333333341,40.60405372734742,-89.91,82.15,172.06,5.845000000000001,33.09095696660337,781.25,789.6240234375,0.5051127486897246,0.48729963831301987,0.5712200256541549,65.53206531293931,0.39459788053582845,66.55073252789934,0.06458333333333334,52,0.15898205833333331,0.001000648500522142,4.5829374411179854e-07,30.5,0.015275252316520691,-3.680556553970783e-06,75.68733333333333,0.10279213112987824,0.3299999999999983,-9.756947091185675e-05
S014,4983.0,5012.984375,W,0.06585937500000005,38.67022877258389,-75.89,66.19,142.07999999999998,5.7,17.017603704375233,781.25,779.2805989583334,1.0993956475857796,0.5207406167474893,1.0356026618659728,65.47730002548009,0.3697607874444351,66.783231428256,0.10416666666666667,64,0.15969756666666662,0.0012357155399021053,1.1927268860478755e-06,30.482666666666674,0.013148721948877805,3.4027787008404177e-06,75.90666666666667,0.0869993614280526,0.3299999999999983,0.00014701392876896984
S014,5013.0,5042.984375,W,-0.03493229166666678,41.20954767753563,-86.48,63.05,149.53,5.1899999999999995,26.841989544601645,781.25,786.5966796875,0.7005825948610358,0.7260879946960056,0.5672245645220437,65.515685368315,0.32463423513756917,66.36264009214823,0.06979166666666667,49,0.16135263333333333,0.0011545753399218096,6.78340461789407e-07,30.474666666666675,0.009910712498212126,-4.9305568930546074e-06,76.209,0.09897306030767306,0.29999999999999716,0.00017329865812137845
S014,5043.0,5072.984375,W,-0.1902239583333333,40.98189580221482,-75.0,59.97,134.97,6.46,13.878329819700614,781.25,785.693359375,0.35520527857924006,0.25181416414469,0.4433096406576333,65.54276452514584,0.3766320945160741,66.23443213314356,0.11354166666666667,67,0.16297551666666668,0.000869214597432012,5.539827891663402e-07,30.485333333333337,0.013349989596334448,8.402780057177818e-06,76.24466666666667,0.0496476473650923,0.1599999999999966,-7.89583547521526e-05
S014,5073.0,5102.984375,W,0.180265625,40.24180148363383,-72.12,60.25,132.37,6.725,29.183736982881822,781.25,786.3932291666666,0.5065542638476377,0.34022657636329484,0.5040364415148968,65.5686466147948,0.4878501520179453,66.82813778641449,0.25729166666666664,137,0.1648335583333333,0.0011654722275815422,3.5760708485435067e-07,30.47333333333334,0.011642832797715072,-7.708335424352977e-06,76.03766666666667,0.04848940319515229,0.1700000000000017,-7.663196523219244e-05
S014,5103.0,5132.984375,W,-0.20156770833333346,39.71455683466127,-86.71,62.88,149.59,5.945,13.039689715515703,781.25,774.4954427083334,1.4540651827052167,0.408758282281024,1.212548323779304,65.54363748986967,0.47028494541665217,66.76076692189807,0.21354166666666666,106,0.1653140083333333,0.000984866898755297,8.899015000817815e-07,30.45133333333333,0.015434449203719973,-5.69444598916166e-06,76.09833333333333,0.13314361502611463,0.3299999999999983,0.00021114589061032183
S014,5133.0,5162.984375,W,0.6174114583333332,39.61812140371965,-77.28,69.59,146.87,7.26,28.844478693030542,781.25,778.4912109375,1.3524183425493344,0.4886638084699269,1.1974867888102148,65.52560602663605,0.37660302982872434,66.76825593049439,0.134375,84,0.16675518333333333,0.001054481128196333,8.117862445166651e-07,30.446000000000005,0.017435595774162323,-4.861112429772148e-06,76.28833333333334,0.06578162526284959,0.21999999999999886,0.0001106597522405983
S014,5163.0,5192.984375,W,-0.24811979166666667,41.25370540877995,-76.13,63.08,139.20999999999998,5.9,12.558036753614653,781.25,783.1624348958334,0.9536115561380326,0.5013480092599241,0.7882574619937884,65.51963044813382,0.39383914649024704,66.82813778641449,0.11875,79,0.16817528333333334,0.0011871456887799802,9.634781259435031e-07,30.434666666666665,0.015216949614017445,-6.31944615870379e-06,76.37066666666666,0.1398078045826546,0.36999999999999034,-0.00021048616820913755
S014,5193.0,5222.984375,W,-0.37505208333333323,41.7191682138513,-83.83,68.24,152.07,5.3149999999999995,18.125687217107682,781.25,784.1959635416666,1.1892161393294605,0.5111760932045717,0.9144646847868003,65.52659976506422,0.428337751178571,67.60917097554147,0.109375,70,0.16949947499999998,0.001011567891629132,2.2274940938297862e-07,30.42533333333334,0.011175369742826569,-1.736111582061482e-06,76.24766666666667,0.04047083998249449,0.14999999999999147,-1.684028234599528e-05
S014,5223.0,5252.984375,W,0.10521874999999999,38.65003817044879,-91.28,62.35,153.63,6.27,19.362306436023083,796.875,786.81640625,0.8659746586217174,0.4990224819584785,0.7288213468028742,65.56436764532116,0.47009247582953934,68.2934843158555,0.16354166666666667,100,0.17066319166666669,0.0009296700695751665,-5.339346066445894e-08,30.413333333333338,0.016397831834998107,-1.0902780735346104e-05,76.28433333333334,0.15068030911687175,0.4000000000000057,0.00023364589671384024
S014,5253.0,5282.984375,W,0.14381770833333343,40.59022039387098,-77.13,59.36,136.49,6.695,19.27368555354762,796.875,797.1516927083334,0.4274629918191749,0.5154292557745761,0.4778242064004525,65.61197836713713,0.4324867053784601,66.23443213314356,0.14166666666666666,81,0.17123967499999998,0.0013603483387384055,1.2927865920102533e-06,30.398666666666667,0.012310790208412662,-9.23611361656708e-06,76.09466666666667,0.13710660896624383,0.45000000000000284,-0.00019354171916821864
S014,5283.0,5312.984375,W,0.032046875000000107,38.01047488341057,-74.28,61.62,135.9,6.0600000000000005,26.026886878502093,796.875,802.001953125,0.31729652272493203,0.5062071312439427,0.5146761049976534,65.52393360110504,0.381281310814216,66.23443213314356,0.08125,53,0.17322556666666664,0.000987143688741516,2.9922360547515166e-07,30.394,0.014966629547095447,-5.555557062596752e-07,75.217,0.40404743945894916,1.0499999999999972,-0.0006934376881070112
S014,5313.0,5342.984375,W,-0.31051041666666657,36.52456843444982,-67.86,59.27,127.13,5.4,15.872070042117222,796.875,793.75,0.23020361986124854,0.4955356249106168,0.3462206039467065,65.39491824492451,0.3035914024469397,67.38694235532579,0.1375,85,0.1745817833333333,0.0009135086496884137,2.033056107057303e-07,30.391333333333325,0.013597385369580469,-6.52777954855117e-06,74.81233333333333,0.12112482083463419,0.3499999999999943,-8.878474630662781e-05
S014,5343.0,5372.984375,W,0.4830625000000001,38.504872194365575,-72.88,59.75,132.63,6.52,14.767292608050449,796.875,796.8994140625,0.27219011113047853,0.48768581750674506,0.3761787031008888,65.45148150236808,0.34068922079873887,66.23443213314356,0.13854166666666667,87,0.17608710000000005,0.0009885764714982887,1.5678910503176728e-07,30.378666666666664,0.011175369742826569,2.0138894351913187e-06,75.175,0.18536001007048983,0.44999999999998863,0.0003032292489228587
S014,5373.0,5402.984375,W,-0.5069895833333333,37.30302556428756,-73.1,68.44,141.54,4.59,26.386826975616426,796.875,799.6907552083334,0.6888236941316858,0.8594696917528079,0.739920697702726,65.50519818661796,0.4746161943108278,67.82329983125268,0.14791666666666667,87,0.1764927583333334,0.0009536319695060013,2.9636488074134225e-07,30.381333333333327,0.013349989596333572,-7.291668644658222e-06,75.11033333333333,0.03701201006280276,0.20000000000000284,-2.156250584920527e-05
S014,5403.0,5432.984375,W,0.320739583333333,39.534636165578696,-72.32,60.92,133.24,5.635,33.79189951605168,796.875,797.1923828125,0.34298526045427796,0.49988605472480757,0.4895777925218377,65.52950627860069,0.39850581279499786,66.82813778641449,0.12708333333333333,75,0.177325475,0.0011387408613793603,2.3075852613892352e-07,30.369333333333334,0.015040685563571294,-1.2847225707255272e-05,74.79866666666666,0.13817219530555136,0.37999999999999545,-0.00022506950549845483
S014,5433.0,5462.984375,W,0.0876770833333332,37.38917683495753,-73.57,55.33,128.89999999999998,5.6899999999999995,17.158373804895373,796.875,799.4873046875,0.2942427162083484,0.49986868935473666,0.48081239122505515,65.52434785856823,0.3919026784095652,66.40030120413611,0.11458333333333333,76,0.17814767500000003,0.0014074852288301323,7.944479151605689e-07,30.36733333333333,0.013399834161494565,-6.666668475116372e-06,75.11033333333333,0.14321273996711636,0.5,2.1770839239050396e-05
S014,5463.0,5492.984375,W,-0.008536458333333148,39.66074054157288,-76.59,68.32,144.91,5.725,30.084402907176862,796.875,804.8583984375,0.8639172886319745,0.4048198652041286,0.7095264155582933,65.53724886748346,0.43690488843502473,66.91786009728644,0.10416666666666667,76,0.1804755,0.0009685493276028797,4.867926667731926e-08,30.35466666666667,0.015216949614018408,-1.256944785412615e-05,75.20333333333333,0.11816184757451274,0.37000000000000455,0.00010972225198629045
S014,5493.0,5522.984375,W,0.09134895833333356,39.60669246640305,-76.18,92.68,168.86,6.53,10.620351036098768,781.25,782.958984375,5.378182197545933,7.266819570256762,4.562080341240228,65.59202094389954,2.8424455717531383,95.94790253048787,0.023958333333333335,7,0.17942912500000002,0.002483343953766439,-2.742448877617426e-06,30.34266666666667,0.01671991493864712,-9.236113616567675e-06,74.83333333333333,0.17257526538360574,0.5799999999999983,0.000152847263684695
S014,5523.0,5552.984375,W,0.2176979166666668,54.17783611839113,-394.7,255.53,650.23,6.140000000000001,31.752191087506443,796.875,795.5322265625,2.009372299980906,0.8657691416291194,3.7355067148469523,66.30613269039246,0.6397402942342958,71.36525765384722,0.103125,70,0.177314875,0.001284394822231471,1.6112623728467865e-06,30.331333333333326,0.01359738536958162,9.444447006415618e-06,75.52133333333333,0.153073693218514,0.519999999999996,0.000269861184315644
S014,5553.0,5582.984375,W,-0.47012499999999996,35.32247191185155,-90.03,131.79,221.82,1.04,24.650756920263998,796.875,800.927734375,6.519148394532108,2.2536659949217555,9.66281751445759,65.95751800849048,0.8438413118908408,73.5187051028512,0.1125,68,0.17752847500000002,0.00250203461527647,-2.7135044253212968e-06,30.37066666666666,0.02279376132970516,3.2986120059169074e-05,75.56566666666667,0.13833975888691205,0.35999999999999943,-0.00024378478835307947
S014,5583.0,5612.984375,W,-0.027296874999999332,55.12941237193051,-165.67,205.69,371.36,-0.415,22.695310398961823,812.5,809.619140625,20.325065317605514,1.5708720154388416,14.16528451437753,65.29772657421219,1.1896375804235424,71.9027120489902,0.15,74,0.17015064166666663,0.0017394897613756087,-2.293121281771175e-08,30.412666666666663,0.022350739485653134,3.166667525680142e-05,75.22933333333334,0.08767110254936641,0.22999999999998977,-0.0001297222574116313
S014,5613.0,5642.984375,W,0.5092916666666676,57.167221269950055,-193.15,135.22,328.37,6.525,37.15603131856502,812.5,798.8199869791666,21.438650737457998,20.415520774603422,11.26065679669954,65.18668206549415,1.8887336036391913,89.08984229416954,0.025,15,0.16750268333333332,0.001540523325493284,-1.2434946949584147e-06,30.476000000000006,0.01645195023900423,2.0902783448020804e-05,75.37166666666666,0.11381515228162035,0.28999999999999204,0.00016295143309229048
S014,5643.0,5672.984375,W,-0.528869791666666,60.41124684302484,-441.2,217.77,658.97,3.0300000000000002,68.14169676201051,921.875,899.12109375,10.09732151081208,3.984056223631333,4.779567605239574,64.7383436112789,1.6079204379107328,81.2896057316063,0.05520833333333333,24,0.17055628333333334,0.0022202538037475747,1.927871616718654e-06,30.49466666666667,0.011175369742827916,6.25000169542047e-07,75.92466666666665,0.31729831739582565,0.9699999999999989,0.0005054168037697489
S014,5673.0,5702.984375,W,0.024114583333333252,36.5236679278456,-83.82,61.83,145.64999999999998,5.575,22.976558623763406,828.125,827.7262369791666,0.21137108216357317,0.0,0.32226244211391164,64.81641800760758,0.3004829386501661,64.93843238021688,0.0,0,0.17188015000000004,0.0009303799909176926,-3.3359384049312205e-08,30.5,0.013416407865000042,-1.2291670000996942e-05,74.55633333333334,0.6147003786850593,2.0999999999999943,-0.0010955211305124597
S014,5703.0,5732.984375,W,0.12287500000000028,49.300424974556506,-122.7,190.76,313.46,2.21,17.854452346777432,796.875,796.8831380208334,7.989116878495638,28.761754673542463,6.06334607140292,64.59347086261371,1.5589730339794432,79.30321557162736,0.017708333333333333,2,0.17065242500000002,0.001721268890782325,-2.0226960782053243e-06,30.486,0.01665332799572973,-8.472224520459907e-06,73.21133333333333,0.2588787790109936,0.8500000000000085,-0.0003863195492403315
S014,5733.0,5762.984375,W,0.09960416666666702,51.995955257852984,-244.05,134.03,378.08000000000004,5.795,18.937361579280026,828.125,826.318359375,4.822214221703552,13.430408941338952,2.8019243681674486,64.50698605294426,1.634523487723699,88.30062287436029,0.020833333333333332,7,0.16641359166666667,0.0014245069468406281,-1.2410268123445477e-07,30.466666666666672,0.01273664878302826,-1.4583337289316452e-06,74.64466666666667,0.45974437341732516,1.6299999999999955,0.0007202779731656824
S014,5763.0,5792.984375,W,-0.0021666666666665317,36.17651983235197,-93.57,122.98,216.55,1.75,54.585373600108944,812.5,798.7874348958334,1.5817632017431966,0.5277704677856336,0.5146033649947199,64.41683623197684,0.42002166135588354,66.73829485385434,0.271875,138,0.16661639166666667,0.0010768389487742392,3.0215828509067723e-07,30.429333333333336,0.022201101073795144,-3.118056401382421e-05,74.69933333333333,0.2922320234942701,1.0300000000000011,-0.00035423620720383164
S014,5793.0,5822.984375,W,0.01569791666666666,36.38304820804252,-81.74,57.08,138.82,3.95,68.25244642304935,828.125,858.3740234375,0.18853591151437318,0.0,0.22008274564480418,64.22517461499632,0.2037866692498991,65.31462317123173,0.051041666666666666,47,0.16623208333333336,0.0011154952680560942,6.480010438370839e-07,30.376666666666665,0.01659986613065129,-2.0277783278478105e-05,73.28033333333333,0.23462712735080193,0.8200000000000074,-0.000384132048646934
S014,5823.0,5852.984375,W,-0.2329947916666666,37.545050924133875,-81.12,58.39,139.51,5.245,36.30422446286704,812.5,822.4772135416666,0.5005975162382339,0.03225804701500421,0.08507936450096985,64.28988784240786,0.1403431886994166,65.31462317123173,0.008333333333333333,8,0.16623207499999998,0.0009990682255857117,-9.590822914177219e-08,30.33,0.0252982212813479,-3.958334407100409e-05,72.66133333333332,0.27925774633640515,0.8499999999999943,-0.00022090283770150566
S014,5853.0,5882.984375,W,0.0821718750000001,37.02334113324155,-72.64,55.29,127.93,5.49,15.187343587885383,828.125,833.4147135416666,0.33993463423951903,0.032258047015004204,0.05581428468591172,64.38378554239809,0.0970011880834616,65.31462317123173,0.004166666666666667,4,0.16573035,0.0010926111510963002,-5.609936417625962e-07,30.279999999999998,0.02049390153191876,-2.645834051061698e-05,72.792,0.07639371701913689,0.21999999999999886,-0.00011611114260827346
S014,5883.0,5912.984375,W,-0.1760781250000001,36.99269074459367,-73.1,54.04,127.13999999999999,4.875,16.67527929933496,812.5,814.6158854166666,0.13928372696486196,0.0,0.07880950133074055,64.41360045296614,0.07605931220937501,65.31462317123173,0.00625,6,0.16602926666666667,0.0011408227055750327,-7.278087911807674e-07,30.244666666666667,0.019275776393067535,-2.4722228928555496e-05,72.59200000000001,0.05275098735253121,0.20000000000000284,-4.07638999468033e-05
S014,5913.0,5942.984375,W,0.3863333333333332,38.28388011363994,-75.77,56.9,132.67,6.51,15.724745375352922,828.125,823.7955729166666,0.20956925068657697,0.31340840191176894,0.07198059875565237,64.38998526884625,0.12749671013764055,65.31462317123173,0.030208333333333334,24,0.16693665,0.0009413365112965678,4.790417966150679e-07,30.22466666666667,0.014544949486180642,-1.4583337289316444e-05,72.79333333333332,0.08806563209081891,0.3100000000000023,0.00012958336848507102
S014,5943.0,5972.984375,W,-0.48561458333333335,38.77427671845026,-84.05,132.23,216.27999999999997,3.88,26.867597827204197,828.125,828.1168619791666,0.9930225324734581,0.6065318288226926,0.5564869579558895,64.4603441504373,0.5138404491524023,68.38128398911503,0.19895833333333332,138,0.16765204166666667,0.0009452624714493642,3.5654198039875857e-07,30.184000000000008,0.01171893055416438,-7.708335424352974e-06,73.20766666666665,0.0689774520324479,0.25,9.58680815614357e-05
S014,5973.0,6002.984375,W,0.22445833333333334,38.128700789212104,-98.5,87.87,186.37,6.215,24.274982266954886,828.125,826.1474609375,0.4851796631718559,0.48131312717283015,0.45405077841030067,64.36214003680912,0.4124781394250367,65.31462317123173,0.14583333333333334,119,0.16841029166666666,0.0009618420556050576,3.30127910733484e-07,30.162000000000003,0.014236104336042976,-1.5416670848707927e-05,73.20700000000001,0.08226582927720638,0.21999999999999886,0.00010177086094044633
S014,6003.0,6032.984375,W,0.16161979166666682,39.4422635016893,-79.87,62.44,142.31,6.82,21.531854434942325,828.125,827.0589192708334,0.0,0.3660254217605657,0.3410547747430022,64.2400464358261,0.3319396374409492,65.31462317123173,0.134375,116,0.16818599166666667,0.000988991881461738,-6.862990142955248e-07,30.136,0.016451950239003983,-2.13194502277153e-05,72.72166666666666,0.20623745753109193,0.5999999999999943,-0.0003595487086449409
S014,6033.0,6062.984375,W,-0.06057291666666676,37.53897765135948,-74.39,52.86,127.25,5.779999999999999,17.57172644684274,828.125,829.541015625,0.09636964965693294,0.032258047015004204,0.39197129111142254,64.23714082223216,0.35670573966857505,65.31462317123173,0.18958333333333333,151,0.16750252500000004,0.0009019939575047068,-5.615908641468254e-08,30.093999999999998,0.01818424226264742,-2.1250005764432532e-05,72.50066666666666,0.13557121949571746,0.3500000000000085,-0.0001998611653269237
S014,6063.0,6092.984375,W,-0.009479166666666572,38.573866716712914,-77.7,54.22,131.92000000000002,7.36,13.336177760942496,812.5,812.0930989583334,0.24393467007354422,0.0,0.451116237099708,64.33661237594211,0.4111666180167838,65.22269543648132,0.284375,198,0.16877329999999996,0.0010716912615114525,4.335778085877318e-07,30.063333333333333,0.01299572579307834,-1.3611114803362015e-05,72.71666666666667,0.22580719405919994,0.7700000000000102,0.00040562511003285447
S014,6093.0,6122.984375,W,-0.30342187500000006,46.75752284625282,-295.26,153.02,448.28,6.005000000000001,8.370661578165619,812.5,814.7542317708334,9.348830140718142,6.0171571822211485,6.828757360115626,64.8487792234142,2.742869525311477,88.53247991556545,0.04583333333333333,13,0.17584159166666666,0.008816406057738639,1.7241660493071927e-06,30.031999999999996,0.01579029237643568,-2.2569450566799257e-05,73.368,0.1275774274705351,0.4199999999999875,0.0001766667145905767
S014,6123.0,6152.984375,W,0.26254687500000007,34.76030714081572,-65.63,50.16,115.78999999999999,5.98,16.546209469031584,812.5,805.2978515625,0.15612494995995993,0.06441510347391793,0.4564164460470528,64.72071985680472,0.42239935724692473,65.23802572120036,0.003125,3,0.17485939166666667,0.000978016686086637,2.1606668187572649e-07,30.025999999999993,0.01083205120618105,0.0,73.716,0.1356859118208945,0.36000000000001364,0.00023604173069709066
S014,6153.0,6182.984375,W,-0.16657812500000013,34.457000495320564,-65.04,47.52,112.56,5.529999999999999,9.287275385718315,812.5,818.65234375,0.3649685464948391,0.03225804701500421,0.4898979485566356,64.49653685087127,0.44119260065216503,65.31462317123173,0.4,210,0.17364206666666662,0.0008267121499584203,-8.594446775837254e-08,30.023333333333326,0.011925695879998624,-4.166667796947556e-06,73.84,0.16128649457823022,0.519999999999996,0.00013666670373988358
S014,6183.0,6212.984375,W,0.2356458333333332,31.587477895381777,-73.36,57.19,130.55,5.1,23.52711675221502,828.125,826.3102213541666,0.032258047015004204,0.0,0.2748085665766061,64.4723683616614,0.252423925656787,65.31462317123173,0.08229166666666667,74,0.17389831666666666,0.0009921668709053967,-1.9714371667309967e-07,30.005999999999997,0.020912516188478433,-2.958334135832983e-05,73.70233333333334,0.27444104811213865,0.8299999999999983,-0.00048434040916352336
S014,6213.0,6242.984375,W,-2.239359375,59.276289204277816,-489.36,366.82,856.1800000000001,4.5649999999999995,17.928617690672052,812.5,814.6728515625,6.504375447081544,2.611811902670358,2.917346460957952,64.65149256756585,1.4916882335056187,79.73079706111058,0.06979166666666667,21,0.1731935583333333,0.0012561644451519376,-1.1976255418906052e-06,29.96866666666667,0.01707499796648752,-2.013889435191349e-05,73.25366666666667,0.10790376370739979,0.30000000000001137,0.00018309032744420818
S014,6243.0,6272.984375,W,1.9526666666666666,81.772790566003,-522.28,260.69,782.97,4.904999999999999,18.617328400833948,843.75,836.0921223958334,15.788400298458834,11.549114577578736,13.541288095669872,66.44588895750779,3.727025039699043,91.02746838180221,0.05520833333333333,16,0.17289465,0.0020746140470378235,6.953435045962235e-07,29.932000000000002,0.019561867668161197,-2.4652784465273035e-05,74.79333333333334,1.0793125384037545,2.8700000000000045,0.001917083853375612
S014,6273.0,6302.984375,W,0.3560833333333333,32.276099598382736,-71.97,62.41,134.38,5.135,56.132894050045145,828.125,845.8984375,0.3443744328488978,0.0,0.478712420558755,66.36890500899766,0.32066011078073514,67.20863039818622,0.1375,100,0.17162395833333335,0.0010439901212482305,-2.6965219988395275e-07,29.856666666666666,0.02385139175999854,-3.84722326584846e-05,75.45033333333332,0.5695699157161384,1.460000000000008,-0.0009850349894300642
S014,6303.0,6332.984375,W,-0.0553125000000002,36.194704972237915,-71.44,52.33,123.77,6.78,17.176258379649287,796.875,798.1526692708334,0.4953943697673827,0.0,0.385330789982235,66.46855380435663,0.4700409457483886,67.20863039818622,0.43125,208,0.170812625,0.0011456270703745653,-7.044748004760225e-07,29.759999999999998,0.027202941017470308,-4.5069456670316056e-05,73.94699999999999,0.8152469973367987,2.180000000000007,-0.0014209378854540696
S014,6333.0,6362.984375,W,-0.10691666666666656,35.872945835112134,-68.58,52.38,120.96000000000001,6.109999999999999,31.251499351984112,796.875,801.4729817708334,0.4480753110527292,0.0,0.40284227812093737,66.6651402636311,0.4192139037020926,67.20863039818622,0.0010416666666666667,1,0.17076994999999998,0.0009526503017896998,9.229429586976373e-08,29.67733333333333,0.023935097428022467,-3.534723181077355e-05,74.29733333333334,0.618023372445483,1.8499999999999943,0.0010657641779959245
S014,6363.0,6392.984375,W,0.0949270833333332,38.146488079601546,-81.18,70.54,151.72000000000003,7.225,23.423184862156223,812.5,812.6871744791666,0.22858828527872257,0.41758232721225164,0.5220309148332757,66.68920816923233,0.2339275403334241,67.65352910233139,0.09479166666666666,49,0.170417675,0.0010653594867656986,-1.5371727260125756e-07,29.621333333333332,0.01687865186822919,-2.381945090588353e-05,74.849,0.2193224414722138,0.6699999999999875,-0.00037024315599043603
S014,6393.0,6422.984375,W,0.10161979166666665,36.08302373853747,-290.61,160.59,451.20000000000005,4.785,61.68956415256547,781.25,829.8909505208334,9.12619831363105,11.397726790823857,14.266613997602835,65.87607908453077,2.6037865597333454,94.23905772024676,0.029166666666666667,10,0.17168803333333335,0.0014793157367137327,4.5364291819741006e-07,29.56266666666667,0.01965253729731115,-1.951389418237105e-05,74.45533333333333,0.4111912234255759,1.5300000000000011,-0.00038708343833643885
S014,6423.0,6452.984375,W,-0.27387500000000004,40.80638951429921,-172.47,210.36,382.83000000000004,3.9450000000000003,24.297704488285824,796.875,813.57421875,4.287084932937791,19.898597102978556,12.087887072970563,65.9465490621886,1.231767072821041,74.49161026585477,0.042708333333333334,17,0.17109012499999998,0.0016283975638773486,-2.011178713969927e-06,29.549333333333333,0.014126413400277761,-1.5347226385423493e-05,72.82833333333332,0.1763912948217359,0.6599999999999966,-1.90972274026771e-06
S014,6453.0,6482.984375,W,0.23936458333333324,45.20910888711565,-93.84,73.32,167.16,7.65,31.49130060104801,812.5,818.2047526041666,0.49499995615880843,0.1462753717308556,0.46934568631648127,66.33612629719822,0.3772349606010813,67.21606950722423,0.16145833333333334,96,0.17020416666666666,0.0009499757482284633,2.3491499428032692e-07,29.512666666666664,0.02048305532765045,-3.013889706458906e-05,72.40433333333334,0.46385833565384627,1.3700000000000045,-0.0002776736864349217
S014,6483.0,6512.984375,W,-0.41864583333333333,45.801019408910534,-89.39,71.33,160.72,8.33,18.759040066095835,796.875,803.7760416666666,0.47075842877625557,0.23040385738958447,0.4530842893589325,66.38089881322281,0.39950729906691856,67.21606950722423,0.15833333333333333,95,0.16922184999999998,0.0009948283407201503,8.81462912723233e-08,29.43866666666667,0.03084729413669074,-5.256945870482165e-05,73.68033333333332,0.2786692583611548,0.980000000000004,0.000309618139544852
S014,6513.0,6542.984375,W,0.3461979166666668,46.865570456252804,-93.0,71.11,164.11,10.129999999999999,11.656089256616877,796.875,797.314453125,0.5147467267582508,0.3421680772011842,0.4955356249106168,66.34623610462815,0.4505512352694479,67.21606950722423,0.24166666666666667,132,0.17003333333333331,0.0011506014755577028,-4.095313610924941e-08,29.358666666666668,0.02813459712801292,-4.520834559688283e-05,74.16000000000001,0.4691552692517341,1.4699999999999989,0.0008322918924402926
S014,6543.0,6572.984375,W,-0.20030729166666644,47.02774933881401,-153.13,89.83,242.95999999999998,6.875,11.199241382398748,781.25,789.5182291666666,2.5926777820618634,1.1462328848837346,4.469788632213683,66.3033967496189,0.680223832739249,72.92461861401813,0.06979166666666667,56,0.17035361666666665,0.0010894446535072645,6.163078928786621e-07,29.282,0.022861904265975844,-2.9583341358327636e-05,75.09166666666668,0.15948005796615702,0.6000000000000085,0.00027684035287552897
S014,6573.0,6602.984375,W,0.07888541666666662,48.34937051476855,-194.8,176.75,371.55,4.25,9.9608543907804,796.875,797.1761067708334,10.36307416776495,22.5682619748998,12.774001739576692,65.61078861093623,1.5627303620187476,83.18653737234169,0.057291666666666664,26,0.16774825833333332,0.0022988625864973364,-3.437512000193144e-06,29.289333333333335,0.032034703404623666,5.131945836573791e-05,75.80566666666667,0.1511441548838566,0.6299999999999955,0.0002360070084654416
S014,6603.0,6632.984375,W,0.15763541666666672,33.09392182568544,-69.16,53.26,122.41999999999999,6.0,15.538497533511995,812.5,814.84375,0.4995212551783959,0.26170307270624255,0.32226244211391164,65.02431099911216,0.3298041197557147,65.58200972827838,0.03125,28,0.16565561666666664,0.0009699240278095016,5.012457956938427e-07,29.369333333333334,0.01671991493864558,2.2847228419929096e-05,75.53466666666667,0.2312824151455427,0.7800000000000011,-0.0004138890011634647
S014,6633.0,6662.984375,W,0.06623437500000004,73.79942248628815,-370.61,238.1,608.71,7.025,27.514569006835952,812.5,807.0068359375,30.928308398887044,12.603171060885057,15.397628975968907,64.96606285699586,2.956674967064034,82.18272324521742,0.03958333333333333,15,0.16424620833333334,0.0016973622226650828,-1.9389247881197886e-06,29.393999999999995,0.013063945294843338,1.3194448023667257e-05,74.25166666666668,0.7609734263136642,2.230000000000004,-0.001216771163403637
S014,6663.0,6692.984375,W,-0.2510729166666666,30.443582554369044,-98.94,52.81,151.75,3.9850000000000003,18.575147981483486,812.5,813.3382161458334,0.38689328623091346,0.31484536548386205,0.40276819911981915,65.68358661958364,0.24322236941781736,67.62396025078685,0.00625,5,0.16328520833333335,0.0011556458720547705,6.287903181397371e-07,29.394666666666662,0.013349989596333572,-7.43055757122314e-06,72.80733333333332,0.016316317667358627,0.04999999999999716,2.229167271366783e-05
S014,6693.0,6722.984375,W,0.020109375000000065,27.465512246393423,-55.0,42.19,97.19,4.245,33.738423587330544,812.5,819.0673828125,0.04564354645876384,0.1682735042192389,0.3197747009614738,65.69540867472226,0.2617009640041967,65.79513659838392,0.0,0,0.16280470000000002,0.0009750246202019758,-4.783482200380388e-07,29.39066666666666,0.012092238098144444,-6.597224011833629e-06,72.731,0.44197548951648163,1.3700000000000045,0.00048017374136657433
S014,6723.0,6752.984375,W,0.10371354166666659,26.09345051946353,-54.89,69.37,124.26,3.24,25.913890168596414,812.5,799.8128255208334,0.5569595973278094,0.5194304021794771,0.4804331089987681,65.56149966933955,0.3372231316533119,66.332495807108,0.015625,13,0.1629435166666667,0.0010549512230693713,8.513131649612565e-07,29.394666666666662,0.016069294390924926,1.5486115311988416e-05,73.52366666666667,0.09321957352878568,0.3200000000000074,-0.00014322920552007314
S014,6753.0,6782.984375,W,0.08708854166666663,26.613087053421552,-53.96,39.82,93.78,3.74,28.30000576854957,828.125,825.8544921875,0.11557806855349138,0.48717938174762687,0.2810396589995006,65.55220249536322,0.27838463839461813,66.332495807108,0.011458333333333333,10,0.16246300000000005,0.0010409950288065779,-7.87600908094867e-07,29.388666666666662,0.01543444920371997,-1.527778192214103e-06,73.41466666666666,0.0867845352326995,0.2600000000000051,-8.201391113658697e-05
S014,6783.0,6812.984375,W,0.008765624999999963,27.039966461457286,-54.25,44.23,98.47999999999999,3.675,29.82475164259774,812.5,816.4957682291666,0.2457891909521021,0.5209791462557146,0.25654623798103576,65.57952443728249,0.26007930816203867,66.332495807108,0.035416666666666666,18,0.162858125,0.0010171099298379737,4.658870621438445e-07,29.380666666666663,0.013399834161494236,3.7500010172528002e-06,72.96133333333334,0.1467817730131679,0.480000000000004,-0.00020347227741761102
S014,6813.0,6842.984375,W,-0.10088541666666653,22.864356652955216,-47.55,38.81,86.36,3.275,18.094755274741704,828.125,823.0061848958334,0.05581428468591172,0.41480835601783894,0.09090593428863095,65.72131686378273,0.14849699301109,65.79513659838392,0.0,0,0.16472679166666668,0.001245866297640808,1.0666142216292914e-06,29.393999999999995,0.013063945294843338,5.8333349157265775e-06,72.316,0.1395612171533815,0.5699999999999932,-8.2777800232698e-05
S014,6843.0,6872.984375,W,-0.12565625000000008,25.65497065195494,-49.15,38.9,88.05,2.62,14.325838657910946,812.5,816.3736979166666,0.07198059875565237,0.3318963165365888,0.13188915142607024,65.74099140276046,0.1519573915333816,65.79513659838392,0.0,0,0.16518591666666665,0.0009806694786669342,1.3702607883736752e-07,29.375333333333334,0.01359738536958047,-8.472224520460029e-06,72.321,0.04894554797595609,0.20000000000000284,7.302085314150703e-05
S014,6873.0,6902.984375,W,0.15942187500000002,24.37539295258345,-48.37,37.46,85.83,3.395,22.67737883230865,812.5,817.7001953125,0.12426432820358739,0.19982631347136331,0.11557806855349138,65.76497779311714,0.12495013995369908,65.79513659838392,0.0,0,0.1649083083333333,0.0011972518309015918,1.1207700522922182e-06,29.358,0.015143755588801284,-7.083335254811487e-06,72.70666666666666,0.11061444551031908,0.35999999999999943,0.0001616667105215672
S014,6903.0,6932.984375,W,-0.32300000000000006,21.76463979907164,-51.39,57.18,108.57,2.0999999999999996,37.90291306191296,796.875,801.7496744791666,0.7223903884077424,0.4377925609108597,0.35626827438509495,65.49088718676602,0.2756576807442375,66.58828725834597,0.34270833333333334,83,0.16573035,0.001001176147089004,-7.06106962377101e-08,29.351999999999997,0.014000000000000632,-2.0833338984706884e-07,73.26133333333334,0.34465183720515624,0.9300000000000068,0.000609097387450465
S014,6933.0,6962.984375,W,0.49198958333333354,29.53926032806269,-83.49,79.11,162.6,4.37,27.083977667161992,843.75,844.9951171875,1.1897712198383166,0.26731691553909065,0.6467055602028037,65.26171690541891,0.24361490846574008,66.18912297349165,0.14895833333333333,82,0.1659225,0.0010845045719897405,2.8689417504724353e-07,29.328666666666663,0.01543444920372128,-1.7916671526875992e-05,73.36466666666666,0.28861431395934384,0.9000000000000057,-0.0005120140277815844
S014,6963.0,6992.984375,N2,-0.13608333333333344,26.43779376064795,-65.97,80.58,146.55,1.71,63.524913142608334,828.125,817.5455729166666,0.5622646112423897,0.4394290309752974,0.12496093139457627,65.30130142433308,0.2930283633485712,66.332495807108,0.09479166666666666,70,0.16631748333333332,0.0009963504653093742,-7.002896864935095e-07,29.301333333333332,0.016069294390924922,-1.2708336780690044e-05,71.997,0.5732780012059296,1.6599999999999966,-0.001026215556156562
S014,6993.0,7022.984375,N1,0.010682291666666661,24.150233373249105,-49.58,42.45,92.03,1.645,40.580254553503096,843.75,852.5309244791666,0.5087248748232082,0.46266419757986693,0.09636964965693295,65.55664601712958,0.2683212963970834,65.87108622149782,0.3541666666666667,203,0.16550617499999998,0.0010282967686300404,4.478497308620138e-07,29.295333333333335,0.01627540748764459,1.1388891978323317e-05,71.17866666666666,0.1272722366512894,0.3999999999999915,-0.00014763892893851163
S014,7023.0,7052.984375,N2,-0.018750000000000176,25.7315823454369,-73.57,79.67,153.24,1.365,40.02364360547681,859.375,855.6315104166666,0.4902156820528649,0.4993746088859545,0.11632669960790028,65.39845912360387,0.28114810743183,66.53570470055908,0.15625,95,0.16686198333333335,0.0011664268514237027,1.2634087628604475e-06,29.31333333333333,0.014681810363696516,1.7361115820614811e-06,70.57133333333333,0.25795003822876633,0.75,-0.0004595834580033249
S014,7053.0,7082.984375,N2,-0.1860989583333333,25.46133261193577,-53.62,47.83,101.44999999999999,1.955,17.889761424981984,843.75,842.67578125,0.4539133467842611,0.5016887713153334,0.17780185112615923,65.5464077281513,0.2844889012715457,66.6783323126786,0.2916666666666667,162,0.16713950000000005,0.0010040562318250229,2.2692844697494954e-07,29.349333333333334,0.014126413400279057,1.215278107443101e-05,70.36500000000001,0.16469669092000702,0.46999999999999886,0.00025690979191346573
S014,7083.0,7112.984375,N2,-0.03240104166666657,24.98262945310699,-72.74,46.76,119.5,2.71,36.513251767299856,828.125,828.2633463541666,0.4685925661548159,0.5366716808771965,0.19986703479369036,65.47585426697214,0.3430981544091508,66.37017402418047,0.28854166666666664,145,0.16830346666666665,0.0009618353023719269,4.2247580904834403e-07,29.384,0.015620499351812976,1.9375005255806132e-05,71.003,0.27201899443482414,0.75,0.0004503126221551154
S014,7113.0,7142.984375,N2,0.26473437499999997,25.03860434684363,-50.4,41.95,92.35,1.9649999999999999,22.89129066005726,843.75,849.6419270833334,0.4837630543027582,0.36110844016106236,0.10642856726723121,65.20673873163005,0.24994796445552392,65.87867636800242,0.2875,133,0.1686771833333333,0.001153903837583054,7.230058384889997e-07,29.390666666666664,0.015040685563570983,3.125000847710666e-06,70.25366666666666,0.34619342698683414,1.4899999999999949,-0.0005979515510936276
S014,7143.0,7172.984375,N2,-0.272640625,25.346866950868232,-65.57,52.57,118.13999999999999,2.09,27.323974239869294,843.75,849.5930989583334,0.2840600362012697,0.39208753982865724,0.08533405557962581,65.47925668679714,0.18046812607851315,66.19667665374146,0.009375,7,0.1695742083333333,0.0010149948185075772,6.628832093324701e-07,29.422666666666668,0.020965580258021404,2.8958341188785513e-05,69.532,0.08791662717218553,0.3999999999999915,9.562502593994781e-05
S014,7173.0,7202.984375,N2,0.2392135416666666,23.473715947226307,-45.05,36.78,81.83,1.98,62.48115202371906,859.375,844.5882161458334,0.06441510347391795,0.03225804701500421,0.032258047015004204,65.55591030863305,0.04231161925621813,65.55913361233506,0.0,0,0.17004399999999997,0.0010353060658568592,-3.481190180444396e-07,29.44666666666667,0.01556349003990467,4.236112260230017e-06,69.89933333333333,0.15935146340366171,0.5,-0.00021743061453738407
S014,7203.0,7232.984375,N2,-0.12664062500000003,24.484015087569883,-62.13,51.47,113.6,3.085,28.973621751145856,859.375,863.4114583333334,0.15021685713216965,0.07902948640996109,0.06441510347391795,65.54714883969378,0.09369624874319463,65.87108622149782,0.004166666666666667,3,0.1708660166666667,0.0011068817836858477,4.10064347348186e-07,29.47066666666667,0.019652537297311146,2.2430561640234337e-05,69.023,0.6624708798631586,1.8599999999999994,-0.0011787850419881316
S014,7233.0,7262.984375,N2,-0.07892187499999999,25.706604386773122,-66.42,53.86,120.28,1.975,29.292516313496424,859.375,860.7096354166666,5.090611145196344,1.4634197013236574,4.0651645908919445,65.60043318517542,0.5162356541999287,72.26340706055866,0.071875,14,0.16989450833333333,0.0011625118206985677,-7.602256836549733e-07,29.479333333333336,0.014360439485692465,6.250001695421765e-06,68.275,0.10695014414825937,0.3300000000000125,0.00018878477343337087
S014,7263.0,7292.984375,N2,0.17087500000000003,25.04292440750897,-75.41,147.26,222.67,4.279999999999999,91.8690928104891,843.75,822.5016276041666,0.6791147411131806,0.5133250472816095,0.6705089471915263,66.13146819118427,0.22766542348676588,66.94027188471824,0.08125,47,0.16866653333333334,0.0010948641006485226,3.9188074866556916e-07,29.48533333333334,0.012310790208413375,-9.097224690002545e-06,70.02333333333334,0.7806293757105361,2.3299999999999983,0.0011309725290181555
S014,7293.0,7322.984375,N2,0.021567708333333473,24.246705433217254,-48.27,36.5,84.77000000000001,3.455,22.59826108371628,875.0,881.4860026041666,0.4856937692620732,0.46351240544347894,0.4249068014642218,66.02991038826534,0.3844595136691941,66.85805860178712,0.07916666666666666,72,0.16943539166666663,0.0010591471828459743,5.964856218765273e-07,29.475333333333335,0.014544949486180925,6.944446328245987e-06,70.156,0.21181123671797994,0.6200000000000045,-0.00037812510257299886
S014,7323.0,7352.984375,N3,-0.041239583333333364,22.890729035028563,-47.17,37.87,85.03999999999999,3.365,28.41619287209595,906.25,905.029296875,0.2957874817753449,0.4564164460470528,0.4268291926780808,65.9644129129263,0.34366270231452084,66.85805860178712,0.0625,56,0.16976639999999996,0.0009924520089152962,3.938060964100754e-07,29.505999999999997,0.014966629547096872,9.444447006415445e-06,68.16733333333333,0.7875444255546613,2.3699999999999903,-0.0011284030838767045
S014,7353.0,7382.984375,N2,0.05871354166666674,21.97780154357517,-46.93,35.16,82.09,3.26,49.741415419465675,890.625,907.4869791666666,1.0589477998033394,0.5515091353630408,1.006221963032456,65.9824650223057,0.3005848413813617,69.72087205421343,0.028125,20,0.17014011666666665,0.0009340067289491165,-3.333199688910517e-07,29.528666666666663,0.017838784213679668,1.708333796748564e-05,67.35033333333332,0.18494113177501068,0.5999999999999943,1.1840280989660962e-05
S014,7383.0,7412.984375,N2,-0.12223437499999994,24.44274571697402,-49.58,41.72,91.3,3.6799999999999997,45.26483652463063,890.625,887.1907552083334,0.06441510347391795,0.4535689874637472,0.0,66.00554019218093,0.12876569827423087,66.19667665374146,0.28854166666666664,169,0.170673875,0.0009908756107815308,-2.6773075839050556e-07,29.539999999999996,0.01527525231651914,6.597224011833626e-06,67.09833333333333,0.03706600718837876,0.09999999999999432,4.7326401726999296e-05
S014,7413.0,7442.984375,N2,-0.104921875,24.14785547746555,-49.54,36.96,86.5,3.83,31.162240460362284,890.625,901.26953125,0.05581428468591173,0.481018838782733,0.0,66.02587291115076,0.1320592817600223,66.19667665374146,0.3614583333333333,175,0.17173070833333337,0.0011085946764247193,7.166892135116158e-07,29.567999999999998,0.019561867668161197,1.68750045776376e-05,67.09366666666666,0.27079492035281894,0.75,-0.00039572927401510503
S014,7443.0,7472.984375,N2,0.23816666666666672,23.176482485245444,-45.95,37.12,83.07,4.17,35.69531496984501,875.0,876.1067708333334,0.045595976308831845,0.48101883878273305,0.0,66.02660855628993,0.13103773422651818,66.19667665374146,0.3625,175,0.17306535,0.0011480666912248548,-5.5913209611872384e-08,29.59733333333333,0.017499206331208546,1.9236116329241216e-05,66.61366666666667,0.1530464707930976,0.5499999999999972,-0.00016843754569160994
S014,7473.0,7502.984375,N2,-0.29748958333333336,22.68825650597995,-49.73,38.03,87.75999999999999,3.05,21.872232655669215,859.375,869.3196614583334,0.0,0.38085561340735,0.0,65.97841526056344,0.10088626259250857,66.19667665374146,0.17604166666666668,122,0.17228588333333333,0.0010963105869485866,-4.343061073964044e-07,29.627333333333336,0.013399834161494614,7.3611131079409095e-06,66.59433333333332,0.3781329866006865,1.3299999999999983,0.0006573960116634129
S014,7503.0,7532.984375,N2,0.11344270833333334,22.14273473474259,-43.78,36.15,79.93,3.335,22.66408266036437,859.375,864.8111979166666,0.05581428468591172,0.44492581895749767,0.0,66.00158799858202,0.12402284237390267,66.19667665374146,0.2708333333333333,162,0.17254213333333338,0.0009259599787367788,-2.0300526340203422e-07,29.639999999999993,0.013416407864998717,4.791667966489753e-06,68.27933333333334,0.4205229548497396,1.5400000000000063,0.0007507640925466842
S014,7533.0,7562.984375,N2,0.2492864583333333,22.725048092203053,-44.33,35.81,80.14,4.404999999999999,18.60473308434304,843.75,847.16796875,0.03225804701500421,0.4759755606908826,0.0,66.02293229365586,0.12712728791049388,66.19667665374146,0.3458333333333333,189,0.17339643333333335,0.001076429435164643,2.823785488221812e-09,29.66266666666667,0.018961950204438315,2.256945056680132e-05,69.75733333333334,0.32475563462736545,1.0,0.0005818751578437406
S014,7563.0,7592.984375,N2,-0.19762500000000022,30.206532283407533,-106.15,131.21,237.36,3.5549999999999997,98.31729391721034,859.375,805.078125,3.38961854622152,2.617645119610797,5.060495037646185,66.23606749440714,1.0542712536819001,84.57541013793548,0.019791666666666666,11,0.1720190416666667,0.0018005402679743708,-1.2910079456944268e-06,29.706000000000003,0.01890326250501003,2.319445073634139e-05,69.62966666666668,0.2104516307584448,0.730000000000004,-0.0002510764569977384
S014,7593.0,7622.984375,N2,-0.10515624999999997,28.112675326942576,-58.33,44.86,103.19,4.805,34.099573614115315,859.375,851.123046875,0.0,0.48491904930101487,0.0,66.39063138078731,0.15713007484136124,66.51315659326356,0.0,0,0.17155990833333334,0.0010248322951897516,4.025528435744486e-07,29.72266666666667,0.015902480589168412,1.0902780735346104e-05,68.857,0.38226648645502087,1.3199999999999932,-0.000677951572795023
S014,7623.0,7652.984375,N2,-0.06879687500000002,26.345018717183333,-52.02,39.17,91.19,4.6,23.056804005271417,828.125,835.546875,0.0,0.3726779962499649,0.0,66.45915098996825,0.12076020013421854,66.51315659326356,0.0,0,0.17166665833333336,0.0010842650236898858,-4.0644043143457974e-07,29.784666666666666,0.031382939455839344,5.0833347122760866e-05,68.861,0.38044141029423345,1.2299999999999898,0.0006292710040340152
S014,7653.0,7682.984375,N2,0.17258333333333334,26.772038281443113,-55.61,40.28,95.89,4.84,15.84533470801013,843.75,840.087890625,0.0,0.2699987139887069,0.0,66.4875039316983,0.0874886606275214,66.51315659326356,0.0,0,0.17130372500000002,0.001164763967237571,8.629318747102544e-07,29.87,0.026832815729997697,4.111112226321717e-05,70.438,0.47776144674931675,1.730000000000004,0.000835833560067698
S014,7683.0,7712.984375,N3,0.0444427083333334,26.227908388573915,-51.02,37.55,88.57,4.165,16.844639644747122,843.75,844.9625651041666,0.0,0.232399078305449,0.0,66.4945921671308,0.07530511457497026,66.51315659326356,0.0,0,0.17309744166666666,0.0009981611743253396,3.008748646036404e-07,29.959333333333337,0.028158282775923874,4.4444456500774875e-05,71.50399999999999,0.0799416453837824,0.3299999999999983,-5.49305704564218e-05
S014,7713.0,7742.984375,N2,-0.17440104166666665,26.328777466308903,-51.7,37.72,89.42,4.3100000000000005,22.436386179927908,859.375,860.009765625,0.0,0.16532992583014122,0.03225804701500421,66.50354805534408,0.055642165140751106,66.51315659326356,0.0,0,0.17383422499999998,0.0010614692134214973,2.0941607243274407e-07,30.029999999999994,0.019321835661585997,2.0416672205043682e-05,70.84766666666668,0.2326038597176653,0.7600000000000051,-0.00039545149616197203
S014,7743.0,7772.984375,N2,0.22963020833333334,26.739424504502786,-57.53,39.81,97.34,4.495,23.2506602112658,843.75,844.0266927083334,0.0,0.1496378730654628,0.03225804701500421,66.50523328911287,0.053884079373103376,66.51315659326356,0.0,0,0.17430407499999998,0.0011859716983870171,8.673346536823564e-07,30.078666666666663,0.020450482200236854,3.131945294038912e-05,70.25233333333333,0.13608045006130962,0.6299999999999955,-0.00014982642953190962
S014,7773.0,7802.984375,N3,0.006041666666666649,26.514905689189188,-54.63,40.91,95.53999999999999,4.87,31.667454651180513,875.0,871.8017578125,0.0,0.13188915142607022,0.032258047015004204,66.50692340555004,0.045340875247336286,66.51315659326356,0.0,0,0.17496615,0.0010434029315178291,5.135370316669461e-07,30.128666666666668,0.0218682926224755,3.180556418336665e-05,69.42433333333332,0.2507945152687531,1.0499999999999972,-0.00041197927842319805
S014,7803.0,7832.984375,N2,0.06543750000000008,25.9053228647176,-50.57,40.29,90.86,4.574999999999999,25.75194880447284,859.375,862.01171875,0.0,0.11110243021644485,0.04559597630883185,66.50811598828962,0.04192479238487007,66.51315659326356,0.0,0,0.17496615,0.0010434029315178291,6.241173568026698e-07,30.167333333333332,0.016918103387267142,2.6250007120771882e-05,68.20666666666668,0.28383485026018707,0.9000000000000057,-0.00045006956653362935
S014,7833.0,7862.984375,N3,-0.07864583333333339,26.666009242018188,-52.8,39.61,92.41,4.3100000000000005,32.027378210100984,859.375,859.5133463541666,0.0,0.09090593428863095,0.0,66.51045631309881,0.029456578946292503,66.51315659326356,0.0,0,0.175948325,0.0009523512058978066,-3.4332366084083793e-07,30.193333333333335,0.021959558789333904,2.8819452262220803e-05,68.79500000000002,0.21451884144133657,1.0,0.0003609375979105904
S014,7863.0,7892.984375,N3,-0.015781250000000007,26.1889361621719,-52.26,41.43,93.69,4.3149999999999995,21.661496095654247,859.375,857.0393880208334,0.0,0.06441510347391793,0.03225804701500421,66.5113113608178,0.025872720879009485,66.51315659326356,0.0,0,0.17624722500000004,0.0010432593993705533,9.482404916016989e-07,30.230666666666668,0.015902480589168412,2.1319450227714994e-05,69.85566666666666,0.19752946334379667,0.7099999999999937,0.0003425348151407349
S014,7893.0,7922.984375,N3,-0.2548958333333333,25.98793835588251,-51.52,38.64,90.16,3.86,44.49060976295334,890.625,894.3522135416666,0.0,0.1496378730654628,0.0,66.50573082281046,0.048487701664371545,66.51315659326356,0.0,0,0.17650342500000005,0.0010458776431184517,6.430021275504925e-07,30.235333333333333,0.01857118436957843,-2.2777783956646638e-05,69.53500000000001,0.26061146047964456,1.0,-0.00046170151413343983
S014,7923.0,7952.984375,N3,0.2778385416666667,25.497944481389368,-54.97,37.98,92.94999999999999,4.945,22.82159766142546,859.375,867.2770182291666,0.0,0.045595976308831845,0.0,66.51248152322238,0.014774629250385049,66.51315659326356,0.0,0,0.17727210833333337,0.001107017387667073,1.0017313915287012e-06,30.199333333333335,0.013399834161494236,3.0555563844282075e-06,68.34533333333334,0.20100967362017433,0.8000000000000114,-0.00016923615701936042
S014,7953.0,7982.984375,N2,-0.2140052083333332,26.138832357839227,-58.78,37.42,96.2,4.5600000000000005,27.71747772840732,875.0,879.541015625,0.0,0.0,0.07198059875565235,66.51068113144656,0.034211562966847804,66.51315659326356,0.0,0,0.17799815000000005,0.0010084698446160935,-3.0953133396574923e-07,30.194000000000003,0.01583245611605022,-1.12500030517584e-05,68.28433333333334,0.09527795594411452,0.3499999999999943,0.000105034750714722
S014,7983.0,8012.984375,N3,-0.18406250000000005,27.55431546011006,-112.17,42.73,154.9,5.85,20.475693836082414,859.375,854.6061197916666,0.9819414363265255,1.4322515145887147,2.1066981471804005,66.46693968632272,0.5881570663866307,72.13875518748573,0.013541666666666667,5,0.1782330916666667,0.0011072437174942846,-5.024721415126268e-07,30.18066666666667,0.013399834161494506,8.888891300155018e-06,69.15566666666668,0.20814551533856065,0.769999999999996,0.0002456597888617062
S014,8013.0,8042.984375,N2,0.2591979166666667,20.258701118860728,-42.72,36.12,78.84,2.9450000000000003,22.956315334407233,859.375,871.1832682291666,0.2914805954090255,0.19823165723606198,0.2795007329547137,66.05427991158255,0.14369074070564342,66.79071791798619,0.027083333333333334,19,0.17839325000000003,0.0011064746212634102,-6.123612772247467e-08,30.18066666666667,0.025681813712344827,-3.1944453109932724e-05,69.54733333333334,0.1752509312069103,0.5600000000000023,-2.555556248794437e-05
S014,8043.0,8072.984375,N3,0.13903645833333325,21.957170237825217,-42.01,36.12,78.13,2.4699999999999998,33.19625384472713,843.75,836.6129557291666,0.06441510347391795,0.20453835214941965,0.0,66.05525043833788,0.07728429203083219,66.34003316248794,0.04375,37,0.17856415,0.0009917720642869548,4.0547797457627507e-07,30.112000000000005,0.013012814197295145,-1.2708336780690042e-05,69.22133333333333,0.09827625462044406,0.38000000000000966,0.00015229170797843703
S014,8073.0,8102.984375,N2,-0.22278645833333335,21.84091783728956,-48.31,35.53,83.84,2.2699999999999996,27.31292319048743,859.375,857.4137369791666,0.07198059875565237,0.36110844016106236,0.05581428468591172,66.08513179514469,0.1255877582457677,66.34003316248794,0.15416666666666667,106,0.178927225,0.0009159972567508084,-1.2820532991681003e-08,30.101333333333333,0.011175369742826569,6.944446328245983e-08,69.75766666666665,0.30891944293330365,1.1899999999999977,0.0004501737332285537
S014,8103.0,8132.984375,N3,-0.004713541666666732,22.794850042490044,-44.3,36.14,80.44,2.725,19.327386577278162,859.375,855.2734375,0.11110243021644486,0.47889031886226313,0.0,66.14117103279294,0.16353718485604804,66.34003316248794,0.35208333333333336,186,0.17939705000000003,0.0010971508089137095,-1.596024738504977e-07,30.095999999999997,0.009165151389911485,6.458335085268711e-06,70.81866666666666,0.13210433586962683,0.44999999999998863,-0.00019923616515737707
S014,8133.0,8162.984375,N3,0.22316666666666662,46.37162334262793,-540.8,175.5,716.3,3.325,23.536703886341144,843.75,854.1178385416666,2.3148739691515727,1.0893343405748097,2.1516466562457075,66.12697276684658,0.5169358690707692,69.59885056522126,0.029166666666666667,14,0.18221582500000003,0.009486432601055837,7.591797415309623e-06,30.121333333333336,0.015216949614017447,2.1041672374585155e-05,70.10400000000001,0.32913624331979485,0.9699999999999989,-0.0005749307115154933
S014,8163.0,8192.984375,N2,0.07766145833333331,36.011809694876106,-503.38,138.25,641.63,2.9850000000000003,31.91742871887832,796.875,798.3642578125,1.296177858139289,0.819647382474453,0.6373774391990981,65.63811703429249,0.5264746203316788,70.60453243241541,0.0375,20,0.17880969166666671,0.001685300466760718,-1.720429503154706e-06,30.127333333333333,0.021123972690339363,-2.8333341019243376e-05,71.14233333333335,1.0655317399725308,3.1000000000000085,0.00190857690662351
S014,8193.0,8222.984375,N2,-0.0637708333333333,24.846972852794014,-46.6,40.07,86.67,2.74,31.566525780626243,843.75,842.6432291666666,0.05581428468591172,0.49093231705659346,0.0,65.69443262897221,0.14383401578230545,65.81033353509159,0.0,0,0.17842528333333338,0.0010130626270813147,-5.598074435241568e-07,30.04,0.024630604269214845,-4.006945531397963e-05,73.75366666666667,0.6591483562564315,1.7600000000000051,0.0011478128113641525
S014,8223.0,8252.984375,N2,-0.21220312499999988,24.698346207927703,-48.88,41.3,90.18,2.205,29.15070301245642,843.75,844.6370442708334,0.032258047015004204,0.48880589869315433,0.032258047015004204,65.63845122589103,0.14057856517986284,65.81033353509159,0.39375,205,0.17839330833333336,0.0012892151410569797,1.3921468620190105e-06,29.990666666666673,0.01209223809814558,2.1527783617565827e-06,73.20833333333333,0.8124205944104466,2.6300000000000097,-0.0014625351189602655
S014,8253.0,8282.984375,N2,0.04225520833333343,24.607905239548913,-47.19,40.06,87.25,2.58,37.73458715519171,859.375,859.3587239583334,0.03225804701500421,0.4732137007708274,0.03225804701500421,65.62260482275846,0.13611738589558503,65.81033353509159,0.3375,183,0.1795465416666667,0.0011211683407338488,9.127682597570166e-07,30.010666666666665,0.015040685563572123,1.5902782091683873e-05,70.78233333333334,0.4022908013973075,1.2800000000000011,-0.0006861460194623497
S014,8283.0,8312.984375,N2,0.16529687500000004,26.507644974598655,-51.61,42.93,94.53999999999999,3.34,32.396176122751,859.375,865.0390625,0.0,0.46393241957267395,0.0,65.61694872649213,0.1306961803879439,65.81033353509159,0.31354166666666666,190,0.17999505833333335,0.0009922042237348223,1.690892385767253e-07,30.035333333333327,0.01454494948618064,6.666668475116089e-06,69.95366666666668,0.4168971362605203,1.0499999999999972,-0.0007146876938714463
S014,8313.0,8342.984375,N3,-0.2653906250000001,26.94284711534298,-54.67,42.31,96.98,2.5149999999999997,37.085809196373624,859.375,870.4508463541666,0.0,0.4090767042988393,0.0,65.58848389123546,0.11524256655051794,65.81033353509159,0.2125,152,0.1801659333333334,0.0008133065200498232,7.729125360548417e-08,30.047333333333334,0.01526069752301247,1.569444870183579e-05,69.58866666666667,0.20655480843807147,0.6799999999999926,-0.00023055561809776749
S014,8343.0,8372.984375,N2,0.17803645833333334,22.833576785093353,-49.68,42.8,92.47999999999999,3.205,55.91488135226536,843.75,852.3111979166666,0.032258047015004204,0.3717436742904982,0.03225804701500421,65.57389082347689,0.10824634281161694,65.81033353509159,0.16458333333333333,128,0.18000576666666668,0.0009058639682032224,1.9825656419720198e-07,30.068666666666665,0.01627540748764459,-3.472223164122963e-06,69.73766666666667,0.5335771317771749,1.3700000000000045,0.000888229407614316
S014,8373.0,8402.984375,N2,-0.1505989583333334,27.092933482613734,-51.03,44.58,95.61,2.67,21.83657707986752,859.375,865.8528645833334,0.0,0.41053297844252284,0.045595976308831845,65.58745570878149,0.12173871730882914,65.81033353509159,0.21458333333333332,145,0.18097725,0.0010093380442151103,5.298582166499025e-07,30.033333333333335,0.019379255804998295,-2.562500695122791e-05,69.91166666666666,0.05842849380986065,0.18000000000000682,3.454862048302531e-05
S014,8403.0,8432.984375,N3,0.19202083333333334,26.680730971753118,-50.85,43.84,94.69,3.325,14.813084744171071,859.375,854.3782552083334,0.0,0.40980681212479725,0.05581428468591172,65.58636170965627,0.12072430077847521,65.81033353509159,0.21145833333333333,143,0.1814256,0.0008334707493367623,3.224740458100247e-08,30.029333333333327,0.015040685563571294,1.3819448193209603e-05,69.68866666666666,0.2789233267803574,0.7800000000000011,-0.00039854177477804015
S014,8433.0,8462.984375,N2,-0.291234375,26.08785596082147,-50.26,44.74,95.0,2.7,27.367571188072304,859.375,869.1324869791666,0.0,0.37727176461405115,0.03225804701500421,65.57623172361396,0.10954267456116265,65.81033353509159,0.171875,130,0.18191665833333334,0.0009640877250526575,5.337653357653148e-08,30.058666666666667,0.016069294390924926,1.6597226724507763e-05,69.83566666666667,0.09548763736154002,0.25,-0.0001415625384012967
S014,8463.0,8492.984375,N3,0.2760520833333333,25.40559561144527,-50.09,43.02,93.11000000000001,3.645,41.226682623150325,875.0,866.0888671875,0.0,0.36210317120569685,0.032258047015004204,65.57153649305616,0.10536574301785154,65.81033353509159,0.15520833333333334,114,0.181767225,0.0010319583443022225,3.1246514552548046e-07,30.081333333333326,0.01431394036905562,7.013890791528385e-06,68.87533333333334,0.36174330985136677,1.25,-0.0006356251724243621
S014,8493.0,8522.984375,N3,-0.008677083333333375,25.48719893601606,-101.49,67.6,169.08999999999997,2.215,50.338352635201844,843.75,830.8919270833334,1.0833488580618382,1.0690235801564694,0.5468888887125265,65.54716993246103,0.251605865873541,68.30080526611674,0.15104166666666666,90,0.18204474999999995,0.001013844040027847,2.501953803698385e-07,30.09333333333333,0.014681810363696516,-9.375002543132e-06,68.546,0.31346025798071053,1.1800000000000068,0.00045284734506492556
S014,8523.0,8552.984375,N2,0.1600833333333334,18.937169917181983,-42.12,35.15,77.27,1.665,52.055565107451685,890.625,895.7356770833334,0.11110243021644486,0.1998263134713633,0.17399263633843817,65.62388976935175,0.15440705933790633,66.24952830020754,0.011458333333333333,11,0.1824077333333333,0.0009775190427244284,-1.8239154253242693e-07,30.05733333333333,0.02657484190399244,-4.437501203749146e-05,70.248,0.4112614740040689,1.2199999999999989,-0.0003861112158504813
S014,8553.0,8582.984375,N2,-0.35757812499999997,23.25187154024606,-43.55,34.76,78.31,1.9949999999999999,31.61365002799985,859.375,867.919921875,0.17677362623014653,0.11557806855349136,0.28855482821967976,65.5970348334135,0.2412213311549934,66.24952830020754,0.028125,26,0.18337946666666666,0.0011166815416919738,3.3173533304452496e-07,29.967333333333336,0.01842703328144729,-2.2083339323822663e-05,69.281,0.28471447685941886,0.9599999999999937,-0.0004926043002941324
S014,8583.0,8612.984375,N2,0.2707343749999999,21.55967599701141,-42.1,34.28,76.38,2.565,35.98635296969546,875.0,871.6064453125,0.17399263633843817,0.14282613750835507,0.2870750936166354,65.59534724443873,0.24452991945051594,66.24952830020754,0.029166666666666667,28,0.18380659166666663,0.001044991782231115,6.281726964444181e-07,29.942666666666664,0.015040685563570983,-1.381944819320939e-05,68.54533333333333,0.31918368100863487,0.8999999999999915,0.0005114584720753229
S014,8613.0,8642.984375,N2,-0.18345833333333347,22.925108999157754,-43.04,35.68,78.72,1.9849999999999999,28.72465905781308,875.0,872.7701822916666,0.23040385738958447,0.11557806855349137,0.32226244211391164,65.59166270762974,0.2784479278730926,66.24952830020754,0.046875,41,0.18365708333333333,0.0010264968467505859,7.690162676367942e-07,29.947333333333333,0.011234866364234906,4.305556723512474e-06,69.389,0.2555040769407286,0.730000000000004,0.00023482645258964148
S014,8643.0,8672.984375,N2,-0.12213020833333331,23.110242815996024,-44.16,35.25,79.41,2.535,38.057749171430835,859.375,859.1552734375,0.21578094200034337,0.13928372696486196,0.33653249956562725,65.57625473369859,0.2806660549618014,66.24952830020754,0.03854166666666667,36,0.18451144166666664,0.0009136003119146588,-5.8656699939426995e-09,29.964000000000006,0.011718930554164382,6.736112938398547e-06,69.04566666666666,0.24049509119499543,0.7399999999999949,0.0003768403800022741
S014,8673.0,8702.984375,N2,0.014000000000000117,23.19178952102446,-44.99,35.0,79.99000000000001,2.98,18.185219241908385,859.375,857.7311197916666,0.24393467007354425,0.15612494995995993,0.3259334884434075,65.5908045718936,0.28044122080992273,66.24952830020754,0.05,44,0.18474635833333336,0.0009254348599067154,5.365498417290174e-07,29.975333333333342,0.010241527663824595,4.166667796947555e-06,69.486,0.14416657032752123,0.5499999999999972,6.486112870581974e-05
S014,8703.0,8732.984375,W,1.0723385416666649,107.30750876181331,-699.84,313.03,1012.87,7.645,36.85595981684271,843.75,842.0247395833334,15.501019756721295,19.14424750301242,11.735078439116723,65.83987054779794,5.022344696375344,107.2240644631605,0.084375,34,0.204360075,0.034972942611673025,3.5802612793677516e-05,29.987333333333336,0.013399834161495237,1.805556045343802e-06,69.94866666666667,0.15654037462868364,0.5699999999999932,-4.1319455653063304e-05
S014,8733.0,8762.984375,N2,-0.7087395833333325,112.4253116725115,-566.96,496.22,1063.18,5.5649999999999995,38.4820012327516,781.25,777.3763020833334,16.896291994391024,12.291744173484448,7.896308734039208,64.55319910393386,5.002302181449743,111.02252023801297,0.05416666666666667,24,0.20052689166666665,0.00559218186667159,-6.770792852320112e-06,29.96066666666667,0.016110727964792418,-1.402778158305677e-05,70.942,0.7612244522259302,2.260000000000005,0.0012145142183469563
S014,8763.0,8792.984375,N2,-0.1655624999999998,47.827615721684204,-136.53,266.47,403.0,2.62,35.36046280823897,734.375,743.8883463541666,1.2421065880356914,1.2819510277307788,0.4517279709318675,64.57413292780761,0.48207705659974454,68.21290200541243,0.029166666666666667,20,0.19642696666666667,0.0010300922849703995,-8.181564719391405e-07,29.860666666666663,0.044939465456941066,-7.777779887635695e-05,75.29033333333334,1.5732037022867982,4.75,0.0028214243764714555
S014,8793.0,8822.984375,N2,-0.1362968750000002,48.75040360394242,-97.19,74.33,171.51999999999998,9.504999999999999,36.03693157395663,765.625,760.595703125,0.0,0.06441510347391793,0.0,64.57736985398218,0.028332701852682746,65.01538279515087,0.004166666666666667,4,0.19532738333333338,0.0009479841083700819,-5.04961508507354e-07,29.701333333333327,0.04780051138731563,-8.354168932880045e-05,79.55933333333334,0.9765139812391613,3.0600000000000023,0.0014454170587611405
S014,8823.0,8852.984375,N3,-0.06102083333333355,49.514644037559556,-98.26,69.48,167.74,10.435,19.56799758888227,812.5,819.5393880208334,0.0,0.09636964965693294,0.0,64.5796607166452,0.04238776939142747,65.01538279515087,0.009375,9,0.19479342500000002,0.0010322552709359277,3.966244565496044e-07,29.552666666666664,0.041867515914953427,-7.236113074032383e-05,78.28266666666666,1.1429375408228666,3.4299999999999926,-0.002050625556267783
S014,8853.0,8882.984375,N2,0.4939375000000002,49.76851323477788,-104.06,75.9,179.96,10.82,41.945601455079384,796.875,800.6022135416666,0.0,0.09090593428863095,0.0,64.57920254411259,0.03998457805601804,65.01538279515087,0.008333333333333333,8,0.19366149166666666,0.001153880236389619,9.452107598770578e-08,29.432666666666666,0.036417334089993245,-5.9583349496350326e-05,75.47666666666667,0.5472679619914019,2.1299999999999955,-0.0009470835902462004
S014,8883.0,8912.984375,N2,-0.029427083333333097,50.939143601140366,-98.0,70.2,168.2,10.945,17.4954578015043,828.125,829.6712239583334,0.0,0.12801909579781012,0.0,64.58286792437342,0.05630864000952868,65.01538279515087,0.016666666666666666,16,0.19317029999999996,0.0010427429980584902,-8.098439696842396e-07,29.331333333333337,0.028252826800557112,-4.6666679325815324e-05,74.24766666666665,0.11303932452420656,0.4099999999999966,-0.000141006982695036
S014,8913.0,8942.984375,N2,-0.7238229166666668,50.44754631948061,-97.97,68.65,166.62,9.934999999999999,27.01156104964209,843.75,847.65625,0.0,0.1462753717308556,0.0,64.58515878703643,0.06433858322246977,65.01538279515087,0.021875,20,0.1937682166666667,0.0009172053494477462,5.506364340919167e-07,29.242666666666665,0.02606828639468898,-3.909723282802456e-05,72.78833333333333,0.748278394419856,1.9500000000000028,-0.0012962156293987734
S014,8943.0,8972.984375,N2,0.5800416666666668,50.933823684290886,-130.56,72.72,203.28,12.395,30.39131322853417,843.75,845.7438151041666,0.0,0.19741988090108856,0.0,64.5934058926233,0.08683427214593388,65.01538279515087,0.040625,33,0.1932449833333333,0.0009597633126916739,3.957041003971641e-07,29.180000000000003,0.02408318915758506,-3.312500898573445e-05,71.42800000000001,0.21321976143562976,0.7199999999999989,-0.0002997223035271028
S014,8973.0,9002.984375,N2,0.2194010416666665,51.676758451632125,-102.8,69.22,172.01999999999998,11.36,18.109727761160116,859.375,854.296875,0.0,0.2382571993782256,0.0,64.60211117074276,0.1047963882720729,65.01538279515087,0.06041666666666667,53,0.19388572499999998,0.0010994185505870853,5.409660755658858e-07,29.125333333333337,0.022320892057044513,-3.020834152787065e-05,70.80333333333333,0.16807405775100825,0.6700000000000017,-0.0002852084107010682
S014,9003.0,9032.984375,N2,-0.5359114583333334,52.42447329752976,-103.6,69.77,173.37,10.7,15.141784476600622,843.75,844.091796875,0.0,0.28855482821967976,0.07198059875565237,64.61143154829152,0.14214410683224588,65.01538279515087,0.09166666666666666,76,0.19433423333333336,0.0008623460803078009,1.960269628979399e-07,29.076666666666664,0.01813529401164687,-2.2777783956646638e-05,70.539,0.10740422089781529,0.3299999999999983,-0.00010260419449983168
S014,9033.0,9062.984375,N3,0.42599999999999993,52.0974723679086,-101.87,69.32,171.19,12.219999999999999,22.804767337403902,843.75,847.2819010416666,0.0,0.32714138285304106,0.05581428468591172,64.62648847110876,0.15243980336262483,65.01538279515087,0.121875,104,0.19455853333333337,0.0010151247454815073,8.732632577211559e-07,29.049333333333333,0.015902480589168412,-1.2847225707254957e-05,70.65866666666668,0.13824454982224726,0.5,0.00023354173001891737
S014,9063.0,9092.984375,N2,-0.3973906249999999,48.92269105450025,-96.43,64.84,161.27,10.56,42.69174936125088,859.375,868.7255859375,0.0,0.36890886408434265,0.07880950133074056,64.64170232082269,0.1776824868967907,65.01538279515087,0.1625,127,0.19556222500000006,0.0010582126319294215,6.578211419870693e-07,29.029999999999994,0.01712697677155314,-1.9305560792523674e-05,70.73100000000001,0.3307904674160558,0.9500000000000028,-0.00053934042408323
S014,9093.0,9122.984375,N3,0.3373020833333335,49.35522368094633,-97.57,65.97,163.54,12.440000000000001,16.888854065797833,875.0,868.8151041666666,0.0,0.382617935250035,0.03225804701500421,64.65299970724105,0.1709157360287469,65.01538279515087,0.178125,140,0.19597861666666674,0.0009977195011903611,-3.70009648982649e-07,29.004666666666665,0.014544949486182117,-1.3333336950233373e-05,69.843,0.26845421707744904,0.8299999999999983,-0.00044038206390572176
S014,9123.0,9152.984375,N2,0.05063020833333332,51.48296578995737,-103.13,68.31,171.44,11.0,29.669611265013533,843.75,856.3883463541666,0.0,0.4196236222795376,0.05581428468591173,64.67322813540493,0.1899014109219173,65.01538279515087,0.22708333333333333,172,0.19570101666666673,0.0012757924007150271,1.0600962077083852e-06,28.992666666666665,0.013399834161495613,-1.1666669831454919e-05,69.17966666666668,0.25557103817834015,0.6999999999999886,0.00035225704000027954
S014,9153.0,9182.984375,N2,-0.4181510416666663,52.66131430115567,-108.33,73.4,181.73000000000002,10.915,26.413683926474707,843.75,853.125,0.0,0.42682919267808084,0.03225804701500421,64.68003188666465,0.19021953995004143,65.01538279515087,0.23958333333333334,178,0.19707815833333336,0.001071580538238046,8.345390718693141e-07,28.977333333333338,0.012092238098144446,1.4583337289316442e-06,69.63066666666667,0.18260948009953432,0.5999999999999943,0.0002777084086665614
S014,9183.0,9212.984375,N3,0.2859791666666666,50.8036125979203,-104.02,72.86,176.88,11.66,19.334231728474624,843.75,852.294921875,0.0,0.4506168611531925,0.05581428468591172,64.69752341157418,0.19959811825586374,65.01538279515087,0.28020833333333334,187,0.1979428583333333,0.0008750981020799247,8.704234132007906e-08,28.976000000000006,0.012806248474865738,4.236112260230324e-06,69.781,0.34571037974967805,0.8400000000000034,-0.0005849654364598085
S014,9213.0,9242.984375,N3,-0.27963541666666647,51.131574056468075,-100.16,68.37,168.53,10.84,18.55811193442894,859.375,859.6272786458334,0.0,0.4459878528957438,0.04559597630883184,64.69427875249599,0.19707450625382195,65.01538279515087,0.271875,186,0.19791094999999997,0.001259004546258668,1.0571274569030596e-06,28.971333333333344,0.011469767022723258,1.6666671187790224e-06,69.53666666666666,0.07404203010602754,0.25,-7.694446531696496e-05
S014,9243.0,9272.984375,N3,0.031281250000000003,51.764447980371294,-103.61,71.75,175.36,11.115,21.05298125226904,859.375,857.5113932291666,0.0,0.47761978573151903,0.03225804701500421,64.72952058615644,0.21064904387077174,65.01538279515087,0.35104166666666664,212,0.1986583583333333,0.0010829286048784092,4.255515477299138e-07,28.98200000000001,0.014236104336042145,-2.9166674578635475e-06,69.80099999999999,0.34384444157205885,0.8200000000000074,0.0005926043274208823
S014,9273.0,9302.984375,N2,-0.19222916666666662,53.84737437433679,-109.41,77.84,187.25,10.835,34.48519432186547,859.375,861.1409505208334,0.0,0.48835284197380174,0.05581428468591173,64.74561939555625,0.22027048320951736,65.01538279515087,0.39166666666666666,213,0.1992349916666667,0.0008597619582945975,1.0962524675164073e-07,28.988000000000003,0.010770329614269504,1.3194448023667374e-06,69.92666666666668,0.08971560003081504,0.3500000000000085,-0.00011138891910506796
S014,9303.0,9332.984375,N2,0.6157760416666669,52.139416028305874,-102.5,70.85,173.35,12.73,16.734105997370246,843.75,844.2220052083334,0.0,0.48358021711903065,0.07198059875565237,64.73516239597697,0.21746547578035685,65.01538279515087,0.36875,220,0.19881854999999998,0.0010287029685482614,4.4187077958733854e-08,28.99266666666667,0.011234866364236184,1.1111114125194925e-05,70.03366666666668,0.14774941248238133,0.4200000000000017,0.0002616320154166706
S014,9333.0,9362.984375,N3,-0.6562187500000003,51.46191297307148,-100.63,70.01,170.64,10.0,21.31930195542999,843.75,847.1435546875,0.0,0.487418752132656,0.07880950133074055,64.74115002428017,0.22162701471304852,65.01538279515087,0.384375,213,0.19942719166666664,0.001188936894146993,9.950805650717766e-08,29.011999999999997,0.013012814197296147,3.819445480535617e-06,70.45700000000001,0.09997166265163976,0.45000000000000284,0.00016336809987198769
S014,9363.0,9392.984375,N3,0.7131249999999999,52.70083997022921,-119.97,71.98,191.95,12.785,21.439073369572263,843.75,845.7763671875,0.0,0.49073004006502624,0.05581428468591172,64.75065929341487,0.22135055479380394,65.01538279515087,0.403125,223,0.20043099166666664,0.0009748497362485646,5.789361379492584e-07,29.036666666666665,0.013984117975601722,1.1527780904888237e-05,70.89466666666667,0.08196476207628722,0.25,-6.88194631129205e-05
S014,9393.0,9422.984375,N3,-0.05476041666666636,51.64188739072124,-98.89,68.02,166.91,11.67,16.408137056524218,828.125,833.1136067708334,0.0,0.4938587696649721,0.032258047015004204,64.76021814584087,0.21789684816125604,65.01538279515087,0.42083333333333334,221,0.20002521666666664,0.0010870620128227418,-3.647921996506631e-07,29.039333333333328,0.013399834161494236,1.569444870183579e-05,71.20266666666666,0.2484073715134517,0.75,0.00044145845308660186
S014,9423.0,9452.984375,N3,-0.49243229166666663,52.106461998994966,-102.52,73.0,175.51999999999998,10.645,19.746399024039945,843.75,846.0205078125,0.0,0.48594726901577384,0.045595976308831845,64.74191656394542,0.21858932681358487,65.01538279515087,0.38229166666666664,220,0.20137045,0.0012523206448430094,1.3967594934786001e-06,29.049333333333333,0.012092238098144446,6.041668305573955e-06,71.445,0.07688736350445635,0.25,-0.00012406253365411336
S014,9453.0,9482.984375,N3,0.4128593750000001,52.960500694906806,-103.67,71.21,174.88,11.535,33.98285395895452,828.125,841.1051432291666,0.0,0.4955356249106168,0.06441510347391795,64.7626031646419,0.22597493765930135,65.01538279515087,0.4322916666666667,220,0.20211774999999996,0.0008143842689418827,1.929284377518556e-07,29.069999999999997,0.012649110640673249,1.3194448023667257e-05,71.55099999999999,0.09246080250571079,0.3200000000000074,-3.732639901432136e-05
S014,9483.0,9512.984375,N3,-0.571453125,54.636915221484436,-106.02,73.7,179.72,10.98,19.82412353893649,843.75,851.9775390625,0.0,0.4977978850648122,0.10152910775842672,64.76602901449938,0.2327961046904467,65.01538279515087,0.446875,226,0.20214979999999996,0.0012427380697476059,-7.909346763603198e-07,29.08466666666666,0.014544949486180642,1.0416669492368887e-05,71.10733333333334,0.0769819603687927,0.29999999999999716,-0.00012500003390843016
S014,9513.0,9542.984375,N3,0.5488958333333331,52.49409462054581,-101.63,68.5,170.13,12.22,22.8892292151206,859.375,863.9241536458334,0.0,0.4995212551783959,0.07198059875565237,64.78143782176991,0.22523412447452987,65.01538279515087,0.4739583333333333,229,0.2029931666666666,0.0009317591099038887,2.338455495457676e-08,29.09666666666666,0.01299572579307834,8.611113447024948e-06,70.50266666666667,0.35188003006075186,1.0,-0.0006295140596555068
S014,9543.0,9572.984375,N3,-0.34166666666666673,54.139689970841985,-105.91,71.34,177.25,11.44,18.119187793352985,843.75,853.9306640625,0.0,0.4999121016488799,0.05581428468591173,64.78868761362095,0.22573724690826724,65.01538279515087,0.4895833333333333,239,0.20316401666666664,0.0010160761124979193,4.682891895315703e-07,29.112000000000002,0.014922019523732608,1.2847225707254962e-05,70.08633333333334,0.06862863024197023,0.23000000000000398,-4.340278955153155e-06
S014,9573.0,9602.984375,N3,0.09770312499999972,52.88131506304738,-109.94,69.92,179.86,11.915,33.48111830258938,843.75,847.9573567708334,0.0,0.4999609359740019,0.08507936450096985,64.79203856077847,0.23064577154623103,65.01538279515087,0.0,0,0.20460560833333333,0.001043684924484974,1.0497782795622443e-06,29.127333333333333,0.012364824660660675,-2.361111751603615e-06,70.34633333333335,0.25083172756961053,0.7099999999999937,0.00043961817480961716
S014,9603.0,9632.984375,N3,0.27422916666666647,53.76829854347246,-108.29,80.8,189.09,11.84,19.69876991117175,843.75,853.2470703125,0.0,0.5,0.09636964965693294,64.78752567218176,0.23375687453466668,65.01538279515087,0.0,0,0.20604709166666665,0.0010843605411780205,8.04029949009861e-07,29.143333333333327,0.014907119849998917,1.5555559775271454e-05,70.54033333333334,0.13499341547728283,0.5,-0.0002078820008360467
S014,9633.0,9662.984375,N3,-0.002296874999999687,52.691411143734946,-121.06,77.77,198.82999999999998,11.809999999999999,32.20748182374461,828.125,839.208984375,0.0,0.49682586235018,0.07198059875565237,64.8157946957445,0.22649420691690758,65.01538279515087,0.0,0,0.206570225,0.0010777058462501134,5.434955901409499e-07,29.160666666666668,0.016918103387267208,1.708333796748694e-05,69.41333333333334,0.3280277766016513,1.0,-0.0004751390177785977
S014,9663.0,9692.984375,N3,-0.2667760416666669,53.66567139157188,-101.85,74.69,176.54,11.129999999999999,17.34627301534506,828.125,822.8759765625,0.0,0.4979896651510173,0.07880950133074056,64.80988197014129,0.22599561136528198,65.01538279515087,0.0,0,0.20757368333333331,0.0010653393589472933,-1.8985725636318862e-07,29.186,0.01496662954709573,2.916667457863449e-06,69.90033333333334,0.5437185750817128,1.7800000000000011,0.0009169794154132518
S014,9693.0,9722.984375,N3,0.3559375000000001,52.70601784165885,-104.55,75.23,179.78,12.155000000000001,15.411537966920507,828.125,826.4485677083334,0.0,0.4980822597724196,0.10152910775842672,64.80590215677715,0.23103891352111777,65.01538279515087,0.0,0,0.20725344166666662,0.0011576360740451054,-7.619748160739e-07,29.202666666666666,0.015902480589168412,9.791669322826753e-06,72.19166666666666,0.5092090817030746,1.5699999999999932,0.0009015627445645452
S014,9723.0,9752.984375,N3,-0.358796875,52.34867064394193,-101.74,70.74,172.48,10.715,12.50984810609979,812.5,817.0979817708334,0.0,0.49994682877004254,0.07880950133074056,64.79338169299693,0.22817490136285543,65.01538279515087,0.0,0,0.20713599166666666,0.0007271939504679781,9.505796849445835e-08,29.22733333333333,0.016918103387265668,1.0555558418933806e-05,73.14499999999998,0.1664882378227749,0.4899999999999949,0.0002469792336640707
S014,9753.0,9782.984375,N3,-0.3563906250000002,52.88737773506229,-110.12,78.01,188.13,10.18,16.51348410430137,828.125,816.9026692708334,0.0,0.4993746088859545,0.10152910775842672,64.79763685327836,0.23630819705822,65.01538279515087,0.0,0,0.2071466833333333,0.0009523772710375312,8.534073495571182e-08,29.242,0.015143755588800408,9.44444700641446e-06,72.86266666666667,0.2633113914909312,0.6800000000000068,-0.0004245140040456882
S014,9783.0,9812.984375,N3,0.09106250000000002,53.386687154471645,-103.32,72.58,175.89999999999998,11.52,16.5587407770249,828.125,833.3251953125,0.0,0.4990866223384697,0.09090593428863095,64.80169156934247,0.23304810335588547,65.01538279515087,0.0,0,0.20845985833333333,0.0010669028954238982,1.0148963256554736e-06,29.256000000000004,0.016451950239003737,1.68750045776376e-05,72.23700000000001,0.29852023940317957,0.7599999999999909,-0.0005248265312571919
S014,9813.0,9842.984375,N3,0.5958333333333333,53.99549525513422,-127.27,72.98,200.25,12.49,12.880499873889793,812.5,818.8313802083334,0.0,0.4990866223384697,0.09090593428863095,64.80168550337181,0.2347287557130954,65.01538279515087,0.0,0,0.2086840333333333,0.0009864744289077613,-3.4306432917327624e-08,29.271333333333327,0.016275407487644594,1.1944447684582993e-05,72.33433333333333,0.33231193511853024,0.8599999999999994,0.0005517015385475099
S014,9843.0,9872.984375,N3,-0.4633697916666668,53.63372003934733,-109.63,79.28,188.91,9.879999999999999,16.327536946019322,828.125,823.8688151041666,0.0,0.49789487400008003,0.09636964965693294,64.80770346152822,0.22846672104191684,65.01538279515087,0.0,0,0.20921801666666665,0.001114642700475012,1.8773268981464179e-07,29.285333333333334,0.021092389359408048,2.2986117346494016e-05,72.48833333333333,0.22104423891057695,0.6400000000000006,-0.00032718758875531663
S014,9873.0,9902.984375,N3,0.4026093750000001,54.56102234266307,-129.89,74.42,204.31,12.335,19.903061903405675,828.125,830.7861328125,0.0,0.49607837082461076,0.09636964965693294,64.81502209010858,0.2313794691347749,65.01538279515087,0.0,0,0.20964518333333332,0.0009368579133050161,-3.4775183044483365e-08,29.31466666666666,0.012310790208412664,7.5694464977880594e-06,72.00500000000001,0.13802777498266924,0.37999999999999545,-0.00021336811343535767
S014,9903.0,9932.984375,N3,-0.2187499999999998,54.93899191565434,-111.1,73.4,184.5,11.345,29.505868956534414,828.125,837.0279947916666,0.0,0.49228421668788036,0.07880950133074056,64.82867310994867,0.22224491764699192,65.01538279515087,0.0,0,0.21002954166666662,0.0013250889774893957,1.3917397438530122e-06,29.336,0.014742229591665183,1.0069447175957999e-05,71.87966666666667,0.21404802161093436,0.5699999999999932,0.00033253481242806135
S014,9933.0,9962.984375,N2,0.3189583333333334,53.964422874766264,-111.95,79.15,191.10000000000002,10.879999999999999,13.113995737613157,828.125,827.685546875,0.0,0.48812282152024905,0.05581428468591173,64.84045504383447,0.22308004949648746,65.01538279515087,0.0,0,0.21078772499999995,0.0011216506137719517,-9.09862008968643e-07,29.358000000000004,0.013266499161421816,2.6388896047339446e-06,71.27533333333334,0.43419452885646653,1.4200000000000017,-0.0005404862577273897
S014,9963.0,9992.984375,N3,-0.3808541666666666,54.23239010652428,-104.58,73.43,178.01,10.945,35.30159657205501,843.75,839.4938151041666,0.0,0.47920176501889294,0.12401959270615269,64.84502194685707,0.23319243475612453,65.01538279515087,0.0,0,0.21100130833333328,0.0009353625571209726,7.306202068739698e-07,29.377333333333333,0.017499206331208546,1.8263893843286785e-05,71.20700000000001,0.06429878174066074,0.23000000000000398,6.149307223661407e-05
S014,9993.0,10022.984375,N3,0.39481250000000023,54.04122642682014,-106.24,75.23,181.47,11.73,25.415319188154292,859.375,848.1770833333334,0.0,0.480422945535725,0.09636964965693294,64.84846261901798,0.22780682568598612,65.01538279515087,0.0,0,0.21191941666666664,0.0011143576070494032,5.18165939172614e-07,29.400666666666666,0.012364824660660675,9.861113786109215e-06,71.34466666666667,0.22221211088107345,0.6700000000000017,-0.00012562503407797336
S014,10023.0,10052.984375,N3,-0.17977083333333344,56.156911450839985,-108.13,77.79,185.92000000000002,10.795,28.098496559079727,843.75,840.966796875,0.0,0.47356783363690946,0.06441510347391795,64.8624969086907,0.21465810822090828,65.01538279515087,0.0,0,0.2125065333333333,0.0009825401682487123,-7.032857810562548e-08,29.416000000000004,0.01645195023900374,7.013890791528385e-06,71.05466666666668,0.09276254033223258,0.30000000000001137,-7.479168695520914e-05
S014,10053.0,10082.984375,N3,0.11929166666666653,53.64794010120454,-102.71,70.54,173.25,11.72,13.674003798644916,828.125,830.3955078125,0.0,0.46876273130858953,0.09090593428863096,64.86493151078301,0.2189789215846815,65.01538279515087,0.0,0,0.21269869999999996,0.0010127261525209998,3.705925484463254e-07,29.432000000000002,0.017397317800932812,1.4236114972904146e-05,71.464,0.3882662316847382,1.0799999999999983,0.0006921529655362861
S014,10083.0,10112.984375,N3,-0.5762760416666667,53.44846351799289,-101.34,72.34,173.68,10.46,18.222655087010207,843.75,840.8854166666666,0.0,0.4671953385630041,0.11110243021644486,64.86324862605254,0.2227165797517159,65.01538279515087,0.0,0,0.21367024166666668,0.0008867275511286205,5.406023601894436e-07,29.45,0.016329931618554172,2.2361117176951883e-05,71.89033333333333,0.041671999658713266,0.12000000000000455,1.5590282006914045e-05
S014,10113.0,10142.984375,N2,0.33979687500000005,54.692420290185765,-105.79,74.87,180.66000000000003,12.085,18.544217552133873,843.75,840.2099609375,0.0,0.4491009054365054,0.11557806855349137,64.88068450170016,0.22104733470769555,65.01538279515087,0.0,0,0.21415084166666667,0.0010501971719303774,2.9222447163207207e-08,29.480000000000008,0.01341640786499898,8.81944683687277e-06,71.67033333333332,0.24712322612188717,0.6500000000000057,-0.000434965395769695
S014,10143.0,10172.984375,N2,-0.5670833333333337,53.86359763166947,-109.54,75.61,185.15,10.765,12.945706118181773,828.125,832.0638020833334,0.0,0.4491009054365054,0.10642856726723121,64.8824301571893,0.22231411138468202,65.01538279515087,0.0,0,0.21501575,0.0010196460108782893,3.395573837775033e-08,29.48533333333334,0.013349989596334228,5.7638904524445005e-06,71.52133333333333,0.09464788546091453,0.30000000000001137,0.00011965281023567989
S014,10173.0,10202.984375,N3,0.58959375,54.42143129895269,-104.83,75.07,179.89999999999998,12.015,13.710125895814917,828.125,826.2125651041666,0.0,0.4330127018922193,0.139283726964862,64.88869207688366,0.22438557152865873,65.01538279515087,0.0,0,0.21583806666666663,0.0008891008166806662,-2.5387767303539393e-07,29.502666666666663,0.013148721948878617,8.541668983743376e-06,71.26166666666668,0.24291402228406117,0.6999999999999886,0.00036690982175287864
S014,10203.0,10232.984375,N3,-0.45202604166666677,54.12436935842521,-111.86,78.28,190.14,10.59,35.049978630433074,828.125,839.55078125,0.0,0.4530842893589325,0.11557806855349137,64.87702518740997,0.22064941764676635,65.01538279515087,0.0,0,0.21522939166666666,0.0010060635358981542,3.231552525920293e-07,29.521999999999995,0.018330302779823587,5.2777792094672394e-06,71.40133333333333,0.12847135435142248,0.37999999999999545,-0.00020097227673943982
S014,10233.0,10262.984375,N2,0.07756250000000016,54.84892361064247,-132.87,81.49,214.36,12.23,28.026549785502173,859.375,860.64453125,0.0,0.3476343040826092,0.18483053424390922,64.92362891901996,0.2153283974061812,65.01538279515087,0.0,0,0.21548561666666666,0.001157752673525553,-5.283482336014107e-07,29.536666666666665,0.009428090415820434,4.861112429772149e-06,71.55733333333335,0.37806466231173935,1.2199999999999989,-0.0005597918185199179
S014,10263.0,10292.984375,N2,0.11048437500000018,55.641125304310336,-108.32,76.75,185.07,11.754999999999999,11.597450632268616,843.75,840.6982421875,0.0,0.27480856657660596,0.139283726964862,64.96248211851537,0.16733300602780726,65.01538279515087,0.0,0,0.21620099999999998,0.0011398749492817224,4.824927524123154e-07,29.56133333333333,0.018390818965511237,2.4305562148860742e-06,69.97133333333335,0.23045944449198896,0.8500000000000085,-0.0002876389669159536
S014,10293.0,10322.984375,N3,0.42016145833333357,54.64081421852638,-110.38,76.12,186.5,11.935,15.338137869061466,843.75,837.6790364583334,0.0,0.3081573258905263,0.15925921720229852,64.94664652409159,0.19573862173371742,65.01538279515087,0.0,0,0.21663874166666666,0.0010918457270133125,3.5248078138042173e-07,29.567333333333334,0.01526069752301247,1.2916670170537422e-05,70.13566666666665,0.28380372716995145,0.8200000000000074,0.0004796876301236002
S014,10323.0,10352.984375,N3,0.09940625000000007,55.4047734853231,-121.11,81.57,202.68,11.665,59.99779026059638,828.125,809.5052083333334,0.0,0.2667236267291586,0.17116012950028855,64.95597797805551,0.185651773584252,65.01538279515087,0.0,0,0.21764220000000004,0.0009345351304258208,5.03170709410459e-07,29.589999999999996,0.014605934866804117,1.6944449040920057e-05,71.34833333333333,0.19007162392693625,0.789999999999992,0.0002649653496542298
S014,10353.0,10382.984375,N3,-0.3367760416666666,54.79047617564579,-102.85,74.8,177.64999999999998,10.91,12.791288749256472,812.5,818.3186848958334,0.0,0.2943625410196677,0.17116012950028855,64.94772480649802,0.19450996393718967,65.01538279515087,0.0,0,0.21810126666666668,0.0009567482142944176,-3.5449098157849974e-07,29.613333333333337,0.013743685418725242,-3.1250008477106665e-06,72.04766666666667,0.23403252385560028,0.8599999999999994,0.0004180903911920546
S014,10383.0,10412.984375,N3,-0.33944270833333356,55.15340396388975,-106.48,75.15,181.63,10.425,38.32266161440529,828.125,836.1165364583334,0.0,0.2870750936166354,0.13928372696486202,64.95881067228389,0.17320327858022402,65.01538279515087,0.0,0,0.2186030916666667,0.0011717712233753439,1.0248919880891874e-06,29.616666666666667,0.01490711984999828,1.2777781243972502e-05,72.85366666666665,0.15877622268113314,0.5600000000000023,0.0002718403515191926
S014,10413.0,10442.984375,N3,0.20417708333333345,56.56255191387946,-109.04,77.74,186.78,11.524999999999999,20.700845652888933,828.125,833.5205078125,0.0,0.2530285309999645,0.16827350421923892,64.96052831800222,0.17844881441995905,65.01538279515087,0.0,0,0.2193291916666667,0.0009644693989947051,7.070477178406273e-07,29.628666666666668,0.015434449203719973,1.2500003390842666e-06,72.20066666666668,0.28975775322768416,1.0300000000000011,-0.000502708469701734
S014,10443.0,10472.984375,N3,-0.18168229166666638,56.60835169475418,-112.87,80.05,192.92000000000002,11.07,17.656437245504176,843.75,837.6953125,0.0,0.26836818808308854,0.19249988726547926,64.94849472177178,0.19714641593939802,65.01538279515087,0.0,0,0.21928645000000005,0.0010676525874552952,2.2187592824325264e-07,29.63533333333333,0.014544949486180642,6.805557401681008e-06,71.761,0.05611595138638945,0.14999999999999147,-6.656251805623378e-05
S014,10473.0,10502.984375,N2,0.5867343750000001,56.351864907511654,-111.19,80.47,191.66,12.545,17.24575266555386,843.75,841.6097005208334,0.0,0.28855482821967976,0.16532992583014122,64.95132135002952,0.1876962578253184,65.01538279515087,0.0,0,0.21978838333333334,0.0009773595652175333,7.862293799450294e-07,29.649333333333335,0.01749920633120994,2.0347227741762216e-05,71.886,0.0610245852095727,0.18000000000000682,-5.569445955253921e-05
S014,10503.0,10532.984375,N3,-0.26225000000000004,56.92691540694964,-129.95,81.15,211.1,11.395,16.718384846693613,843.75,844.6858723958334,0.0,0.2900232719350102,0.1496378730654628,64.95526977801431,0.17503256472842657,65.01538279515087,0.0,0,0.2206106833333333,0.0009058311651307954,-3.16575606709973e-08,29.666000000000007,0.009521904571391508,4.0277788703830685e-06,71.72933333333334,0.08270160551981766,0.3100000000000023,-9.458335899071286e-05
S014,10533.0,10562.984375,N3,0.21153125000000012,57.516111327510714,-112.58,80.68,193.26,11.305,13.356708758765215,828.125,830.9326171875,0.0,0.2763853991962833,0.15612494995995993,64.95762341143602,0.17933415196866062,65.01538279515087,0.0,0,0.22089898333333333,0.001052612780840555,6.24764058366986e-07,29.676000000000002,0.015620499351813763,3.819445480535506e-06,71.60800000000002,0.09396453231583414,0.25,0.00015479170865660629
S014,10563.0,10592.984375,N3,-0.04803125000000001,57.068540986174604,-112.2,78.43,190.63,11.629999999999999,26.84915364314962,859.375,857.4951171875,0.0,0.2870750936166354,0.1561249499599599,64.9544162037078,0.18218297259946856,65.01538279515087,0.0,0,0.22160359999999998,0.0010113739120622023,1.9988416880538478e-07,29.680666666666674,0.013399834161494779,5.694445989162004e-06,71.30933333333333,0.32295441714823503,0.7999999999999972,-0.0005468057038860979
S014,10593.0,10622.984375,N3,-0.4200781249999998,56.745234134904635,-110.46,79.59,190.05,10.825,16.271953832359966,843.75,844.0511067708334,0.0,0.2667236267291586,0.17116012950028858,64.95597191208488,0.18776214503853897,65.01538279515087,0.0,0,0.22229750833333337,0.0010459576393257502,3.5028590231280017e-07,29.698,0.01599999999999966,1.611111548153055e-05,70.84,0.10194769900950794,0.3199999999999932,-0.00018145838255706937
S014,10623.0,10652.984375,N3,0.5716562499999999,55.754915973154354,-112.55,78.68,191.23000000000002,12.045,35.77218386471006,828.125,840.4541015625,0.0,0.23040385738958447,0.17399263633843817,64.96427466693366,0.17469115376678143,65.01538279515087,0.0,0,0.22304476666666673,0.000986551694314881,1.3178562602691744e-07,29.71933333333333,0.014360439485691705,9.44444700641446e-06,70.82199999999999,0.315017459833578,0.9000000000000057,0.0004952779121305087
S014,10653.0,10682.984375,N3,-0.7029947916666668,57.8255513803152,-110.97,80.24,191.20999999999998,10.3,20.02225035523021,843.75,847.119140625,0.0,0.2530285309999645,0.17116012950028855,64.95964335831634,0.18241827489510565,65.01538279515087,0.0,0,0.22279922500000005,0.001056285720993618,9.146031126853095e-08,29.730666666666668,0.012092238098144446,1.7361115820614805e-06,71.26366666666668,0.07871820345736699,0.21999999999999886,-9.163196930120799e-05
S014,10683.0,10712.984375,N3,0.5919218750000002,58.16907250012799,-113.47,85.75,199.22,11.600000000000001,30.37878159302634,843.75,849.1373697916666,0.0,0.23040385738958447,0.1592592172022985,64.96866306953912,0.16741353003652892,65.01538279515087,0.0,0,0.2239309333333334,0.0009130315596346574,2.1329215855364616e-07,29.73466666666667,0.015216949614017445,-1.4583337289316454e-06,71.12566666666666,0.1513645342285381,0.519999999999996,-0.00019100699625840983
S014,10713.0,10742.984375,N3,0.36389062499999997,60.28798128668312,-134.65,109.37,244.02,11.48,41.56825125411055,859.375,859.4807942708334,0.0,0.2382571993782256,0.18483053424390922,64.95891427000106,0.18785684972265315,65.01538279515087,0.0,0,0.2236426166666667,0.000976418926343723,8.005210504885696e-08,29.744000000000003,0.016451950239003737,2.0902783448020235e-05,70.77966666666667,0.3571599392740209,1.3300000000000125,-0.00034392370440638705
S014,10743.0,10772.984375,N3,-0.40153124999999995,58.05597796657354,-136.46,84.34,220.8,10.86,13.360945006404508,843.75,841.0319010416666,0.0,0.2021987428181051,0.1899835519196333,64.96495148159552,0.18221963105619873,65.01538279515087,0.0,0,0.22435815833333334,0.0011556087645034682,6.080789409936386e-07,29.755999999999997,0.013808210118138358,3.9583344071001784e-06,69.286,0.2103901138361785,0.8700000000000045,-0.0003664584327415461
S014,10773.0,10802.984375,N3,0.18379166666666671,59.69812785571613,-116.11,83.65,199.76,12.415,21.579944477106114,859.375,853.0598958333334,0.0,0.18742764807756854,0.1899835519196333,64.96770051679114,0.17962338527741817,65.01538279515087,0.0,0,0.22474256666666667,0.001078494210565004,2.6170276196364093e-07,29.766000000000002,0.01306394529484334,-3.1944453109931242e-06,68.639,0.3462017716111038,1.2999999999999972,0.00021670144767291948
S014,10803.0,10832.984375,N3,-0.007625000000000052,59.30606538142656,-116.25,81.33,197.57999999999998,11.58,20.114775907127044,859.375,857.9020182291666,0.0,0.18998355191963326,0.20684625513624577,64.96107795631069,0.19636467976860042,65.01538279515087,0.0,0,0.22444351666666668,0.001080565029535734,2.3442758095366375e-07,29.78333333333334,0.01299572579307834,1.0555558418933806e-05,69.87466666666666,0.11191465001906126,0.5,9.631947057277112e-05
S014,10833.0,10862.984375,N3,-0.2898229166666668,59.83116182546774,-117.48,80.79,198.27,11.06,16.16127957060684,843.75,849.1455078125,0.0,0.17677362623014656,0.194978186101819,64.96778148546176,0.1793335550359855,65.01538279515087,0.0,0,0.2252764666666667,0.0010678414280948093,5.20855176013233e-07,29.78466666666667,0.015434449203719973,1.0833336272063642e-05,70.32933333333335,0.086368718617076,0.269999999999996,0.00012111114396461128
S014,10863.0,10892.984375,N3,0.24760416666666657,60.235090210752425,-117.2,83.62,200.82,12.06,16.48614392825878,859.375,859.1145833333334,0.0,0.1821904480893551,0.194978186101819,64.9668590744259,0.1823833061267044,65.01538279515087,0.0,0,0.22511635000000002,0.0009446513523517588,-5.053734009801991e-08,29.797333333333334,0.015040685563570985,6.458335085268711e-06,70.45,0.08434057939884738,0.25,5.5000014919710685e-05
S014,10893.0,10922.984375,N3,-0.3545260416666667,62.100136162830026,-140.8,112.75,253.55,12.61,37.745593439051426,875.0,886.962890625,0.0,0.17116012950028855,0.19249988726547926,64.96957672424217,0.17658880526247508,65.01538279515087,0.0,0,0.22569294166666667,0.0010150453216140444,4.1047081447233536e-07,29.82466666666666,0.017074997966488075,1.666667118779101e-05,69.47166666666666,0.6396982795731815,1.9599999999999937,-0.0011451739217594175
S014,10923.0,10952.984375,N3,0.09471354166666644,60.727777195836076,-121.06,89.33,210.39,11.725,20.6664314025901,859.375,858.3577473958334,0.0,0.15612494995995993,0.19741988090108856,64.97010979947476,0.17806640389668524,65.01538279515087,0.0,0,0.22604536666666666,0.00083789361828072,1.138628781095083e-08,29.82666666666666,0.017191729277637572,1.4930559605729973e-05,68.02966666666666,0.11303342671774433,0.4200000000000017,7.743057655995482e-06
S014,10953.0,10982.984375,N3,0.38735416666666656,61.7515763747809,-193.63,164.71,358.34000000000003,8.775,20.015744727335225,843.75,842.3095703125,5.098910559020318,0.6962199524735142,0.9715746231061662,64.65048453305693,0.46239374379614295,65.97726881282674,0.008333333333333333,7,0.22663250833333332,0.0011360609945174054,1.0125234951506823e-06,29.840666666666667,0.013399834161495814,8.472224520461325e-06,68.90933333333332,0.650763312494557,2.030000000000001,0.0011571530916756425
S014,10983.0,11012.984375,N2,-0.7770260416666664,56.953570414667496,-121.25,93.56,214.81,8.24,25.967091911010368,859.375,855.322265625,0.0,0.2599996661322643,0.1356408400888169,64.12580819724455,0.16296129459789896,65.03076195155643,0.01875,17,0.22885307500000002,0.0010743143019503174,9.592253036092918e-07,29.862000000000005,0.017587874611030833,1.916667186595968e-05,70.65066666666668,0.15620357087965592,0.5799999999999983,0.00015506948650974
S014,11013.0,11042.984375,N2,0.5585625000000001,57.66148016762225,-115.27,81.67,196.94,11.57,32.418144859208134,859.375,870.9798177083334,0.045595976308831845,0.2986060642338367,0.16827350421923892,64.12419360931179,0.19706755736092046,65.03076195155643,0.029166666666666667,27,0.22866090000000003,0.0011451461871743692,-1.0957598458549784e-07,29.89666666666667,0.01813529401164687,2.1666672544127288e-05,70.24900000000001,0.3417440562760395,1.0800000000000125,-0.000608854331828977
S014,11043.0,11072.984375,N2,0.17108333333333334,54.61261281720755,-107.22,77.95,185.17000000000002,9.795,26.58964776887105,859.375,856.0709635416666,0.05581428468591172,0.30412207150254644,0.18483053424390922,64.12813193096761,0.20763359814352556,65.03076195155643,0.035416666666666666,34,0.23056170000000004,0.0009905393783187053,4.416411788306167e-07,29.946000000000005,0.016653327995728707,1.597222655496563e-05,69.35866666666668,0.18902792268750962,0.5700000000000074,-0.000325972310647868
S014,11073.0,11102.984375,N2,-0.7911302083333335,54.401491193598844,-107.79,79.76,187.55,9.075,34.0654470663993,875.0,872.9573567708334,0.05581428468591172,0.3247177593909654,0.17677362623014653,64.11817377756265,0.21015810781150993,65.03076195155643,0.03229166666666667,31,0.23067914166666673,0.0009269727728456907,-1.0541430810935052e-07,29.97466666666667,0.015216949614017447,1.7986115990156946e-05,69.60233333333332,0.13737256721129698,0.519999999999996,3.3576397997069477e-05
S014,11103.0,11132.984375,N3,0.720953125,54.99060762774527,-106.54,76.79,183.33,11.045,19.61861293604821,859.375,866.8131510416666,0.06441510347391793,0.3172537731804339,0.17950549357115012,64.12193160127326,0.2135323276853136,65.03076195155643,0.03333333333333333,30,0.23087132500000002,0.001050093790751573,3.7735795826767675e-07,29.98333333333334,0.012995725793078583,2.63888960473366e-06,69.343,0.09609543867079894,0.3299999999999983,-7.836807681425829e-05
S014,11133.0,11162.984375,N3,0.04816666666666668,54.37655240957622,-104.01,76.66,180.67000000000002,10.190000000000001,15.466160327334855,859.375,858.0485026041666,0.09636964965693297,0.37727176461405115,0.19982631347136334,64.10508137155485,0.2349659826431986,65.1766829472013,0.041666666666666664,37,0.2321311666666667,0.0009305886518160937,7.381008946671288e-07,30.00666666666666,0.016397831834999575,1.1319447515042404e-05,69.316,0.2810646426239589,0.7600000000000051,0.0004292362275488903
S014,11163.0,11192.984375,N3,0.0367916666666666,55.69568934376727,-135.44,122.8,258.24,7.55,55.19642251564799,859.375,843.5872395833334,0.39910789189766716,0.5178036884015237,0.2835477130141514,64.11850201150553,0.2813505533964013,65.1766829472013,0.06875,54,0.23202442500000006,0.0009057408814749424,-8.203628527460022e-07,30.022666666666662,0.012092238098144767,4.513890113359741e-06,69.70666666666668,0.09655165571973577,0.4300000000000068,0.00012965281294835564
S014,11193.0,11222.984375,N3,-0.11296874999999983,47.255512768563385,-125.98,144.63,270.61,4.49,27.211525338900664,859.375,855.6396484375,0.6222430513316766,0.6918392104062587,0.3701011029284956,64.13686068990782,0.3702150411468288,66.59579566308972,0.146875,78,0.2319496916666667,0.00112089116179816,-4.509738636539351e-07,30.031999999999993,0.016613247725835795,6.319446158703789e-06,70.65799999999999,0.19329424892289646,0.7800000000000011,-2.993056367474434e-05
S014,11223.0,11252.984375,N2,-0.21549479166666638,42.70658303159301,-104.5,69.7,174.2,6.58,31.549602764925044,875.0,876.8880208333334,0.03225804701500421,0.2382571993782256,0.08507936450096985,64.1609101775284,0.13110501313027997,64.5832795698701,0.06041666666666667,47,0.23114893333333336,0.0011157028034183495,5.474389505856546e-07,30.048000000000002,0.013999999999999702,-6.250001695421333e-07,71.35066666666667,0.284111871549844,1.0,0.00017805560385622895
S014,11253.0,11282.984375,N2,0.03046354166666648,44.82125561889001,-86.69,67.92,154.61,7.08,19.27762298570698,890.625,885.3190104166666,0.09636964965693297,0.19249988726547926,0.10152910775842672,64.14968467108088,0.1259891565122021,64.5832795698701,0.04791666666666667,43,0.2324834583333334,0.0009622005759008325,4.1921908073434396e-07,30.06533333333333,0.01431394036905562,5.902779379009036e-06,69.64899999999999,0.4191686215991523,1.6299999999999955,-0.0006778821283317405
S014,11283.0,11312.984375,N2,-0.3589687499999999,44.66081810177526,-86.67,65.64,152.31,6.355,27.505985533391954,875.0,867.138671875,0.13188915142607024,0.17950549357115012,0.09090593428863095,64.15046669132686,0.11142240183000464,64.73020933072904,0.04791666666666667,45,0.2327823666666667,0.001071594986716325,3.658642485525853e-07,30.112,0.02212088003071561,2.8541674409090754e-05,68.36966666666667,0.2651098304895952,1.0,-0.00030475702711507853
S014,11313.0,11342.984375,N3,0.05102083333333329,44.60081079466194,-85.61,64.97,150.57999999999998,6.890000000000001,19.56763206225414,859.375,854.6468098958334,0.17677362623014653,0.1529193630552463,0.09636964965693294,64.14753923958006,0.1140226872394601,64.73020933072904,0.05416666666666667,51,0.23259020833333338,0.0010050754606482177,-5.6179919753667055e-08,30.17,0.029664793948383377,4.597223469299035e-05,69.02566666666667,0.3472912642469175,1.2000000000000028,0.0006167015561798924
S014,11343.0,11372.984375,N2,0.3364947916666666,45.159359010099976,-89.08,67.54,156.62,7.49,20.156121463020796,859.375,865.478515625,0.27161545721335933,0.17116012950028858,0.12401959270615269,64.15185936900944,0.13837569212057296,64.73020933072904,0.029166666666666667,28,0.23282505833333336,0.0009669343591633096,7.338521955979302e-08,30.22266666666667,0.01671991493864558,6.458335085268709e-06,69.71533333333333,0.12109867418303556,0.4000000000000057,2.5833340341077215e-05
S014,11373.0,11402.984375,N2,0.20452604166666669,46.35628598583329,-89.24,69.35,158.58999999999997,7.555,19.49559836145824,859.375,858.6669921875,0.3295340117962872,0.1496378730654628,0.10152910775842672,64.15972924399408,0.11626838508487201,64.73020933072904,0.14166666666666666,106,0.23328410000000002,0.0011829738543180086,-4.1617546011704196e-07,30.245333333333335,0.01910206504252546,1.701389350420252e-05,69.87933333333334,0.06065934021695064,0.20000000000000284,-5.61805707955118e-05
S014,11403.0,11432.984375,N2,-0.163015625,46.61525016155932,-92.08,71.29,163.37,7.635,24.791221935226176,859.375,865.1529947916666,0.3952352938440594,0.1682735042192389,0.10152910775842672,64.1727985121002,0.13637372202128054,64.73020933072904,0.029166666666666667,27,0.23362573333333334,0.0009714352846289978,-5.421355637303499e-08,30.296,0.024303634844743727,3.548612073733667e-05,69.78999999999999,0.13152946437966076,0.4000000000000057,0.0001327778137960667
S014,11433.0,11462.984375,N2,-0.005567708333333362,45.97950294346066,-95.61,69.33,164.94,7.529999999999999,33.86591780728199,859.375,858.6263020833334,0.42934361238988983,0.1356408400888169,0.10642856726723121,64.1746825260756,0.1238184588068871,64.73020933072904,0.016666666666666666,16,0.23367916666666666,0.0011600066905937303,9.098118787467094e-07,30.334,0.01890326250501148,2.1388894690999427e-05,69.61533333333334,0.07209869778451258,0.3100000000000023,-5.0208346953219475e-05
S014,11463.0,11492.984375,N2,0.09567708333333323,46.085654071611316,-88.26,71.06,159.32,6.965,31.94431717243733,843.75,850.4964192708334,0.439992897669951,0.10642856726723118,0.12401959270615269,64.17052957735976,0.1346616545153846,64.73020933072904,0.010416666666666666,10,0.23341217500000003,0.000869799628865755,-1.6207100750624178e-07,30.369333333333334,0.016719914938645858,9.236113616566971e-06,70.18766666666667,0.2524108203350682,0.8100000000000023,0.0003406598146321095
S014,11493.0,11522.984375,N2,-0.49440104166666665,46.82478951229162,-89.98,66.67,156.65,6.675,25.15376671749095,843.75,851.4241536458334,0.46639570816766984,0.11557806855349136,0.09090593428863095,64.18638498880144,0.11929823706018668,64.73020933072904,0.013541666666666667,13,0.23484301666666668,0.0008816809512075258,6.627571242288147e-07,30.40266666666667,0.02448582356294209,3.395834254512258e-05,70.80033333333334,0.21634052376339935,0.6899999999999977,0.0003201042535005016
S014,11523.0,11552.984375,N3,-0.05166666666666645,46.89483197953575,-90.06,68.49,158.55,6.905,32.36023278652091,843.75,856.2744140625,0.47103494024388,0.11557806855349137,0.09636964965693294,64.18731254108829,0.12227190730997405,64.73020933072904,0.013541666666666667,13,0.23590022500000002,0.00098126712692059,2.0582253847182316e-08,30.436666666666667,0.01738453974720669,1.6666671187790215e-05,70.35233333333332,0.17967903482475475,0.5999999999999943,-0.0002371181198779645
S014,11553.0,11582.984375,N3,0.043322916666666614,46.57975129191394,-95.75,72.56,168.31,7.095,14.725194946794764,828.125,833.447265625,0.4917185265728758,0.13188915142607022,0.12801909579781012,64.19410445280478,0.1453277986362941,64.73020933072904,0.017708333333333333,14,0.23638075,0.0009643913300626456,7.604589736488088e-07,30.46466666666667,0.01359738536958047,9.166669153284622e-06,69.669,0.301400619331369,1.0,-0.0002710764624230839
S014,11583.0,11612.984375,N2,0.34994270833333335,46.52455262353024,-90.92,67.13,158.05,8.225000000000001,21.500589436575886,875.0,869.091796875,0.49209793056249373,0.10642856726723118,0.09090593428863095,64.19901637514586,0.1243508360284264,64.73020933072904,0.011458333333333333,11,0.23657296666666666,0.000917758727674233,-5.590626516554516e-07,30.468,0.017397317800933385,5.347223672749437e-06,69.83966666666669,0.13272737304548746,0.45000000000000284,-0.00017336810258466466
S014,11613.0,11642.984375,N3,-0.3047708333333333,48.42774297911941,-92.0,70.37,162.37,6.96,18.534186565303358,843.75,845.8740234375,0.4992083576774331,0.11557806855349137,0.10152910775842672,64.20703988093618,0.12824349706692664,64.73020933072904,0.013541666666666667,13,0.23643412500000002,0.0009346927887680521,3.5536142452295476e-07,30.474666666666675,0.014313940369056205,4.23611226023004e-06,70.05033333333334,0.28214042996745775,0.9299999999999926,0.000296423691521182
S014,11643.0,11672.984375,N3,0.5412135416666665,49.50459524478746,-97.64,72.04,169.68,8.545,26.172177390507315,859.375,862.8336588541666,0.49539436976738255,0.09636964965693294,0.07880950133074056,64.22306412592037,0.11232814096979951,64.73020933072904,0.009375,9,0.2363273916666667,0.0009186643592360355,6.032920473339982e-07,30.49666666666667,0.011925695880000146,3.0555563844290215e-06,70.14066666666665,0.12325943732180725,0.29999999999999716,0.00020625005594890545
S014,11673.0,11702.984375,N2,-0.4321197916666666,49.988410112330705,-97.71,72.7,170.41,7.135,26.717388869447966,859.375,869.3359375,0.47981726664950275,0.10152910775842669,0.11557806855349137,64.22786867692372,0.1276788412724378,64.73020933072904,0.010416666666666666,10,0.23716008333333333,0.0010641206587548681,8.278782627707985e-07,30.5,0.0112546286774242,-8.263891130613811e-06,69.69933333333334,0.33337599726968004,0.8999999999999915,-0.000543958480891509
S014,11703.0,11732.984375,N3,-0.0591666666666668,49.20709788986804,-99.39,73.01,172.4,8.120000000000001,23.737500565676008,859.375,859.9609375,0.45259667475579185,0.09636964965693294,0.1064285672672312,64.23988335859136,0.12028885198665103,64.73020933072904,0.009375,9,0.23805679999999996,0.0009296448031372014,-1.617930126391642e-07,30.49266666666667,0.014360439485692992,-2.0833338984738886e-06,69.1,0.15174540080894225,0.5400000000000063,-0.0002352083971376951
S014,11733.0,11762.984375,N2,0.3184010416666669,51.23960888657897,-99.44,74.22,173.66,8.625,19.767235852366994,875.0,874.4873046875,0.43240962246141357,0.07880950133074055,0.09090593428863097,64.24696685563406,0.1078186025787017,64.73020933072904,0.00625,6,0.23773655,0.0008408214421029026,-4.358959515776793e-07,30.500666666666667,0.01611072796479396,1.4166670509623096e-05,69.58066666666667,0.18729536981878456,0.6299999999999955,9.236113616568833e-06
S014,11763.0,11792.984375,N3,-0.2895520833333335,49.88112170040923,-99.17,71.51,170.68,7.48,19.46746413446011,890.625,887.8499348958334,0.43240962246141357,0.07198059875565235,0.11110243021644486,64.24281081314565,0.12419940839198826,64.73020933072904,0.005208333333333333,5,0.23777924999999997,0.0010002651585954631,4.470157462607833e-07,30.50333333333333,0.01659986613065281,-2.22222282503908e-06,68.98166666666665,0.27272798821454863,0.9799999999999898,-0.00047864596317435894
S014,11793.0,11822.984375,N3,0.01799479166666664,50.74633247616248,-97.25,72.35,169.6,7.995,21.497040685396062,859.375,865.966796875,0.40309135303165317,0.07880950133074055,0.09636964965693294,64.25267059339588,0.10968112825970468,64.73020933072904,0.00625,6,0.23883614166666658,0.0010262104746414822,1.4982360835058872e-07,30.509999999999998,0.012649110640674184,-7.361113107940771e-06,68.17666666666666,0.1469769445260808,0.4200000000000017,0.00016229171069111225
S014,11823.0,11852.984375,N3,0.4913854166666668,49.63898956735643,-97.79,72.46,170.25,9.35,32.959366156482226,890.625,892.9036458333334,0.39114409953011203,0.08507936450096985,0.12401959270615269,64.24990608325919,0.1314405786290834,64.73020933072904,0.007291666666666667,7,0.23871871666666664,0.0010588461186856017,8.585614308163633e-07,30.499333333333333,0.012364824660662296,3.472223164123012e-06,68.31666666666666,0.14038835026058558,0.39000000000000057,-0.00019722227572218997
S014,11853.0,11882.984375,N3,-0.6624947916666669,49.986395581228884,-95.22,69.42,164.64,6.915,16.59306327323166,875.0,869.873046875,0.3660254217605657,0.10642856726723118,0.09090593428863096,64.26251999285913,0.10889215177024582,64.73020933072904,0.011458333333333333,10,0.2410252666666667,0.0010616381581729684,-2.464323585157224e-07,30.512666666666664,0.017688665548562934,-7.77777988763598e-06,68.06566666666667,0.14377490122487444,0.37000000000000455,-0.0002327431186911685
S014,11883.0,11912.984375,N2,0.4374791666666665,50.32131104524271,-106.35,84.44,190.79,8.96,34.187474892572375,890.625,888.7613932291666,0.38436088501635485,0.09090593428863095,0.09090593428863095,64.25805725740443,0.10701637321854907,64.73020933072904,0.008333333333333333,8,0.24045927500000003,0.0008780558634705458,-1.170662209923564e-07,30.51866666666666,0.01334998959633408,-4.652779039924721e-06,68.03533333333334,0.1516516476080044,0.4300000000000068,0.0002200695041421179
S014,11913.0,11942.984375,N3,-0.5380677083333336,50.830233427328125,-96.05,77.45,173.5,6.985,16.092139351749267,875.0,875.5615234375,0.3630921887069453,0.11987768650679834,0.13188915142607024,64.25606548600345,0.13966600077280614,64.73020933072904,0.014583333333333334,14,0.24008549166666668,0.0010617399163310014,8.009756947091211e-07,30.517999999999994,0.015143755588801065,7.638890961070777e-06,68.02233333333334,0.08511495494656299,0.3199999999999932,-5.614584856387228e-05
S014,11943.0,11972.984375,N2,0.4055677083333334,50.73257249098164,-99.52,73.45,172.97,9.165,36.065423114971324,875.0,874.3082682291666,0.3621031712056969,0.09090593428863097,0.11110243021644486,64.25807491956971,0.11553916061280876,64.73020933072904,0.007291666666666667,7,0.24093985833333337,0.00105736195549611,1.8857861018299324e-08,30.524666666666665,0.011469767022723258,-6.666668475116089e-06,68.13733333333333,0.09845247020206714,0.37999999999999545,0.00015187504119874132
S014,11973.0,12002.984375,N2,0.21218750000000036,50.81008795839507,-98.96,73.94,172.89999999999998,8.0,16.79479108002554,875.0,880.8675130208334,0.3421680772011842,0.08507936450096985,0.11110243021644486,64.26053524920448,0.11754921983091685,64.73020933072904,0.007291666666666667,7,0.24103590000000003,0.0009584160057094242,5.8130224102165994e-08,30.525999999999993,0.013063945294843338,2.2222228250386956e-06,68.55600000000001,0.11557393016305113,0.3300000000000125,-0.00011284725283400135
S014,12003.0,12032.984375,N2,-0.5331666666666667,52.26394976336993,-99.83,80.58,180.41,7.390000000000001,22.32833271124277,859.375,865.3971354166666,0.3197747009614738,0.11557806855349137,0.10152910775842672,64.26806812390787,0.11548284463487828,64.73020933072904,0.013541666666666667,13,0.24166589166666672,0.0010484924796728644,6.183463048899476e-07,30.533999999999992,0.013063945294843338,1.388889265649184e-06,68.64866666666667,0.18465703946024312,0.5300000000000011,0.00031444452974298005
S014,12033.0,12062.984375,N3,0.34907812499999985,50.94071192464559,-98.99,74.41,173.39999999999998,8.67,19.24254945073935,875.0,876.8880208333334,0.3353843152100122,0.11987768650679834,0.09636964965693294,64.26744892156255,0.11277166170558482,64.73020933072904,0.014583333333333334,14,0.24184736666666673,0.0010718309485278977,1.7716584667042391e-07,30.533999999999992,0.013063945294843338,6.388890621986252e-06,68.82066666666667,0.062125321371851054,0.20000000000000284,0.00010472225062995305
S014,12063.0,12092.984375,N2,0.27752083333333316,51.203897167146685,-98.62,77.42,176.04000000000002,8.9,40.490392055470956,875.0,880.224609375,0.2943625410196677,0.10642856726723117,0.13188915142607024,64.26362733362268,0.13210573517568688,64.73020933072904,0.011458333333333333,11,0.2419007916666667,0.0009867931469819528,5.065589481767941e-07,30.534,0.01583245611605022,8.333335593895115e-07,68.36933333333333,0.28868591159867146,0.8600000000000136,-0.00043361122873568445
S014,12093.0,12122.984375,N2,-0.3435364583333334,52.01974412866919,-100.05,74.57,174.62,7.415,15.67266188548004,859.375,860.400390625,0.29292696461272083,0.10152910775842669,0.12401959270615269,64.26516270944069,0.12627455186845443,64.73020933072904,0.010416666666666666,10,0.2428509916666667,0.0010833718544112812,9.595195745224456e-07,30.550666666666665,0.01412641340027776,1.1458336441605777e-05,68.50399999999999,0.16410565702213617,0.5300000000000011,0.00029527785787702483
S014,12123.0,12152.984375,N3,0.3384218750000002,52.53020801027987,-100.85,74.1,174.95,8.505,16.51723750886167,875.0,873.3479817708334,0.26339134382131846,0.08507936450096985,0.12801909579781015,64.26579045020505,0.12437635226571635,64.73020933072904,0.007291666666666667,7,0.24380129999999997,0.0009238896903851657,4.9455742582394854e-08,30.56266666666666,0.015040685563570983,-2.2916672883211546e-06,69.17333333333333,0.1809112735262497,0.6100000000000136,0.000172569491256917
S014,12153.0,12182.984375,N3,-0.17002604166666682,52.555621930576926,-103.0,81.63,184.63,7.52,18.4436334584256,875.0,875.4801432291666,0.24944382578492938,0.12801909579781012,0.13188915142607024,64.27024006942541,0.13613627397549197,64.73020933072904,0.016666666666666666,15,0.24361979166666667,0.0011256330137292578,1.007557781998093e-06,30.568666666666665,0.013597385369580469,8.611113447024948e-06,68.82933333333332,0.36090565095172744,0.9399999999999977,-0.0006104862767161163
S014,12183.0,12212.984375,N2,-0.2361041666666667,53.37065376947162,-113.24,81.5,194.74,7.28,29.844570137547304,875.0,870.4020182291666,0.26339134382131846,0.12801909579781012,0.139283726964862,64.26716253626304,0.14269269152973746,64.73020933072904,0.016666666666666666,16,0.24435664166666668,0.0010616939907198116,6.12207197321843e-08,30.566666666666666,0.01273664878302826,-2.2916672883211554e-06,67.88333333333333,0.26031177887721807,0.7800000000000011,-0.00042187511444094776
S014,12213.0,12242.984375,N2,0.08158333333333327,53.67591016823925,-102.43,77.92,180.35000000000002,8.48,17.424091754985643,875.0,881.7789713541666,0.23437268517375387,0.11110243021644485,0.09636964965693294,64.27701520276237,0.10053999464759325,64.73020933072904,0.011458333333333333,11,0.24476245833333335,0.0009494032765886306,-5.503495416529805e-08,30.570666666666664,0.010934146311237585,2.9861119211457473e-06,67.63733333333333,0.22503234335436237,0.6200000000000045,0.0003247223103087874
S014,12243.0,12272.984375,N2,0.36282812499999995,53.79601479752435,-103.67,79.83,183.5,8.745,30.72061257996399,875.0,877.5960286458334,0.2565462379810357,0.13188915142607022,0.12401959270615269,64.27192858255293,0.13081645876937087,64.73020933072904,0.017708333333333333,16,0.24518960000000004,0.0008742475278775489,5.039532617060734e-07,30.57933333333333,0.01526069752301247,4.72222350320723e-06,68.01166666666667,0.26757034381427663,0.710000000000008,0.0003950348293822806
S014,12273.0,12302.984375,N3,0.23299479166666692,54.1645555300771,-113.91,78.52,192.43,9.465,47.52715018037819,890.625,889.3473307291666,0.2304038573895845,0.09090593428863096,0.1064285672672312,64.2736228605326,0.11341391165611685,64.73020933072904,0.008333333333333333,8,0.24531770833333336,0.0009915129045708695,1.7244210406958186e-07,30.57733333333333,0.013148721948877068,3.1250008477106678e-06,68.11200000000001,0.13531198517992843,0.45999999999999375,-0.00023812506459555672
S014,12303.0,12332.984375,N3,-0.84103125,54.85622795353951,-124.56,79.66,204.22,6.699999999999999,49.45558688822378,890.625,906.2093098958334,0.25828082463667335,0.08507936450096985,0.11557806855349137,64.2690150040996,0.11619840571060254,64.73020933072904,0.007291666666666667,7,0.24520028333333335,0.0009510952824974446,3.0671666306333186e-07,30.581333333333326,0.013349989596333574,-3.541667627405422e-06,68.006,0.07463689882803626,0.30000000000001137,-6.541668441207738e-05
S014,12333.0,12362.984375,N3,-0.023567708333329544,132.23204320960195,-673.22,430.72,1103.94,9.685,47.393281749189825,906.25,872.021484375,15.561660368916295,14.243340914850934,7.538878110151551,64.54973959701925,6.383235957595312,162.35147058157497,0.046875,22,0.24879837500000004,0.008893590261214813,-7.081772103345297e-06,30.572,0.018867962264112807,8.263891130612646e-06,67.59733333333334,0.2454374778951974,0.9500000000000028,0.00019770838696516558
S014,12363.0,12392.984375,N2,0.4838124999999998,120.3659218208266,-699.37,591.4,1290.77,9.46,62.53044181783147,875.0,894.7998046875,37.91069376890814,12.884430161306987,26.458634430701444,65.34905095459024,3.3240722015378807,97.06698717895802,0.03854166666666667,14,0.2409184666666667,0.011612859644185647,-1.4288709171199322e-05,30.598000000000003,0.027129319932500496,-1.0555558418933806e-05,68.76833333333333,0.4106992681864542,1.1400000000000006,0.000693715465960142
S014,12393.0,12422.984375,N2,0.16177604166666662,52.57322059936433,-106.51,83.35,189.86,8.364999999999998,78.1198304903173,1046.875,1031.0384114583333,0.0,0.18998355191963326,0.22219509383022437,66.4141628787565,0.052145124449122365,66.67083320313314,0.0375,31,0.226643125,0.0015585364158000874,-2.2333163610341594e-06,30.629999999999995,0.016329931618554176,1.8611116159699083e-05,67.89533333333333,1.2957281950916846,4.420000000000002,-0.0022511811662275292
S014,12423.0,12452.984375,N2,-0.12194270833333322,52.02299983267466,-99.86,76.41,176.26999999999998,7.8,64.3376013175154,937.5,949.5768229166666,0.0,0.19982631347136326,0.3903123748998999,66.40608029302302,0.05773603653202147,66.67083320313314,0.041666666666666664,36,0.2232263166666667,0.0011980117763982535,-1.3721370909660123e-06,30.663333333333338,0.014907119849999761,5.277779209466818e-06,62.82866666666666,1.08659018135736,3.6499999999999986,-0.0019445838608354645
S014,12453.0,12482.984375,N2,-0.16785937500000023,52.885259698582125,-109.04,85.81,194.85000000000002,7.505,59.37366093692738,968.75,979.2887369791666,0.0,0.3121091305537215,0.49997287252798917,66.4023623499583,0.08674298152091,66.67083320313314,0.109375,84,0.22090959166666668,0.0012108030977814753,-1.058800851454222e-06,30.67400000000001,0.010832051206181576,1.3888892656495795e-06,61.339333333333336,0.26645741790304056,0.8200000000000003,0.0004580556798111114
S014,12483.0,12512.984375,N2,-0.11533333333333348,52.88905992631074,-102.88,78.84,181.72,7.74,59.528139955945065,968.75,966.796875,0.0,0.4342088511176262,0.40907670429883936,66.4207933397582,0.1167423821867414,66.67083320313314,0.2520833333333333,158,0.21963887500000004,0.0009011333749090554,-7.497614881080629e-09,30.692666666666664,0.016918103387265966,1.3055559097102351e-05,62.07466666666666,0.15538625707857495,0.5900000000000034,-0.00018201393826333039
