participant_id,window_start_time,window_end_time,sleep_stage,BVP_mean,BVP_std,BVP_min,BVP_max,BVP_range,BVP_median,SDNN,median_nni,IBI_mean,x_std,y_std,z_std,mag_mean,mag_std,mag_max,movement_density,burst_count,EDA_mean,EDA_std,EDA_trend,TEMP_mean,TEMP_std,TEMP_slope,HR_mean,HR_std,HR_range,HR_trend
S015,8438.0,8467.984375,W,0.6352239583333332,21.997993962799033,-202.9,159.99,362.89,0.475,85.30449945789898,890.625,937.0686848958334,0.8551766132972508,0.7169542785282754,1.4291328804315417,65.37777900444561,0.3356770956382992,66.35510530471637,0.14791666666666667,101,0.16298044166666661,0.001087311238758509,-1.0260955474434565e-06,32.032999999999994,0.01810156530984633,1.9201394097599486e-05,56.186,0.2422340466023166,0.8400000000000034,-0.0002831250768025917
S015,8468.0,8497.984375,W,0.2728854166666667,26.798225304800887,-188.48,111.69,300.16999999999996,1.5950000000000002,77.92552277184961,859.375,889.0380859375,0.9550214511843294,0.7085408703318077,1.6816871979048962,65.32922341441106,0.3911326330423697,67.19374970932937,0.21770833333333334,129,0.16236149166666666,0.0010018980320358095,-5.17484949404556e-08,32.06133333333334,0.014313940369056838,9.097224690002943e-06,56.409666666666666,0.8468391556580008,3.0600000000000023,0.0013066322988911398
S015,8498.0,8527.984375,W,-0.011354166666666672,11.733074562409717,-34.98,34.92,69.9,1.03,89.24491301261993,1078.125,1037.8580729166667,0.5311059853817629,0.24944382578492946,0.6078470873478149,65.28090611605047,0.29784783711235446,66.30987860040162,0.1125,90,0.16168918333333332,0.0009779000629182725,-6.504910618736623e-07,32.062,0.009797958971134243,-2.5000006781689775e-06,61.08366666666667,0.9759900386559054,3.8500000000000014,0.0017226046339530797
S015,8528.0,8557.984375,W,-0.5474687500000004,172.91637562660966,-878.73,599.02,1477.75,1.84,0.0,1078.125,1078.125,29.20524753002327,19.887044061005522,25.129653361747696,65.45546800598842,7.589153429974496,124.7517534946904,0.08333333333333333,34,0.1967295083333333,0.08783254753146237,5.112718856531808e-05,32.001333333333335,0.04169199230334588,-6.548612887536083e-05,65.90766666666666,2.0931327133164666,5.959999999999994,0.0037278829556974145
S015,8558.0,8587.984375,W,0.5343125000000001,39.803087607232314,-430.98,253.29,684.27,5.67,48.27041452264842,1093.75,1092.3746744791667,0.5074435091027922,0.4225419111362406,0.4910262425098411,65.27260678404546,0.4334112158770269,66.61080993352356,0.334375,174,0.1839642916666667,0.0023085060370862946,3.46597294541366e-06,31.90666666666667,0.02314207327694588,1.3263892486949714e-05,69.32566666666665,0.39248510233581635,1.6800000000000068,-0.00041420150124823796
S015,8588.0,8617.984375,W,-0.4200260416666666,31.76720416675409,-238.87,204.07,442.94,6.6850000000000005,55.074329410771924,1125.0,1132.9182942708333,1.7356504944512559,0.8328221088146949,0.9471717540115004,65.18482742135912,0.5388481984389578,68.66585760041157,0.051041666666666666,37,0.18820145000000005,0.003555183893157523,-3.4252830472229975e-07,31.981,0.02180978373727434,3.0868063929054e-05,64.22466666666668,3.344899334143788,10.380000000000003,-0.005924168273700161
S015,8618.0,8647.984375,W,0.6293541666666668,157.0475424307596,-1503.97,873.59,2377.56,10.045,30.32301258389552,1140.625,1126.46484375,1.8676696988939632,0.6291528696058958,0.6978008299392376,65.22011973925629,0.3673411635027956,67.23094525588644,0.14583333333333334,103,0.18309969166666662,0.002189808522054812,-5.517837868337071e-07,31.95166666666667,0.03777859476240732,-6.371529506165699e-05,54.71766666666667,0.7696782155911361,3.469999999999999,-0.000700382134435258
S015,8648.0,8677.984375,W,-1.1410260416666667,31.763194553919718,-102.22,65.53,167.75,6.83,87.75684111694565,1109.375,1102.6204427083333,0.5862427445653853,0.2478531956566673,0.36095065211727895,65.2386314173444,0.28160988125413106,66.61080993352356,0.13020833333333334,85,0.1838255583333333,0.0017181564625873085,9.770770879657475e-08,31.93066666666667,0.020965580258021404,3.173611972008388e-05,54.074,0.09551963149007643,0.4299999999999997,-0.0001520833745885891
S015,8678.0,8707.984375,W,0.8239010416666672,55.256353233329264,-329.44,198.29,527.73,8.23,59.65559838637783,1171.875,1129.1666666666667,3.38424595142289,1.3410826239149722,1.7148981459671786,65.03576285705346,0.9109104974917276,71.65193647069142,0.03854166666666667,12,0.19160625,0.003586142868157001,5.232491002737353e-06,31.98866666666667,0.011175369742827169,6.805557401681045e-06,53.889333333333326,0.37079134593760654,1.1199999999999974,-9.333335865162693e-05
S015,8708.0,8737.984375,W,0.37806770833333303,33.409170716810664,-97.29,84.25,181.54000000000002,7.085,64.91137582261051,1171.875,1165.9423828125,0.4830279207480891,0.139283726964862,0.4377181995556299,64.95942470034036,0.29793892127617044,65.86349520030045,0.00625,6,0.1964199833333333,0.0016519894722391263,2.3186369136927464e-06,31.991,0.009433981132057024,-2.3263895199625764e-06,54.74033333333333,0.8068105243625805,2.1699999999999946,0.0013462156429621427
S015,8738.0,8767.984375,W,-0.27260937500000004,33.527486275466266,-134.03,72.63,206.66,8.065000000000001,42.36994019028842,1187.5,1168.1884765625,0.4888292064264937,0.1818118685772619,0.4465325027830188,64.96929602934681,0.3061020272757706,65.86349520030045,0.014583333333333334,11,0.199536475,0.001167764573608485,9.062465565990029e-07,31.988000000000003,0.009797958971132939,2.569445141450906e-06,54.860666666666674,0.8484925194458434,2.289999999999999,-0.0014820142909109937
S015,8768.0,8797.984375,W,0.10951562500000035,33.34019881471861,-91.17,57.05,148.22,8.735,91.56119173899681,1203.125,1220.4915364583333,0.3630921887069453,0.09636964965693294,0.3518906647391425,65.02624590830743,0.23683976087414907,65.86349520030045,0.003125,3,0.20200205833333332,0.0012722294230721662,1.521718511750889e-06,31.984333333333336,0.011742609969205677,3.0902786160692447e-06,52.60933333333334,1.0240147568381142,2.8200000000000003,-0.0017670838126854957
S015,8798.0,8827.984375,W,-0.6055729166666666,38.093212380467904,-117.63,94.37,212.0,8.91,66.45917341843351,1171.875,1178.9143880208333,0.38522517765587444,0.09636964965693294,0.34977516339865466,65.027820541554,0.2399075143677706,65.86349520030045,0.005208333333333333,5,0.20375271666666664,0.0010791027923181807,3.8586251786635156e-07,31.98266666666667,0.009637888196533769,6.875001864963466e-06,50.818,0.05867424193516786,0.21999999999999886,-6.472223977925321e-05
S015,8828.0,8857.984375,W,0.12305208333333309,37.72117985762712,-94.53,56.69,151.22,10.344999999999999,36.033258615005195,1187.5,1192.7164713541667,0.4155075021885886,0.08507936450096985,0.3580894882528978,65.02097931395352,0.2465577439386852,65.86349520030045,0.005208333333333333,5,0.20531090000000005,0.0010270538885569767,6.919372536722172e-07,31.991000000000003,0.013000000000000556,7.326390876300035e-06,50.45633333333333,0.11582985606291614,0.3300000000000054,-0.00020357644411253604
S015,8858.0,8887.984375,W,0.4715104166666666,33.83350121689509,-85.78,51.4,137.18,10.66,40.19526501500264,1187.5,1185.3922526041667,0.36505326856349185,0.09090593428863097,0.34298526045427796,65.03316932606755,0.23587582968033957,65.86349520030045,0.00625,6,0.20684760833333338,0.001121432642469992,9.650100274007261e-07,32.00333333333334,0.01659986613065167,9.305558079849972e-06,50.285,0.03703601850451375,0.12000000000000455,3.21875087314213e-05
S015,8888.0,8917.984375,W,0.10342708333333335,31.8292469479869,-82.26,102.22,184.48000000000002,5.57,36.33937866477554,1218.75,1202.197265625,0.3726779962499649,0.11557806855349138,0.3886352099191334,65.00216429283473,0.25999150111798575,65.86349520030045,0.003125,3,0.2092493666666667,0.001072532516471585,5.423764492123567e-07,32.038,0.020066555924389197,2.4861117855119152e-05,50.889,0.6439324498734326,1.8500000000000014,0.0011010766875750573
S015,8918.0,8947.984375,W,-0.40145312499999963,35.300411997756406,-112.81,82.4,195.21,7.785,38.09723776084839,1171.875,1192.7978515625,0.38693955887479664,0.16827350421923892,0.41689446897732874,64.98802343802528,0.2914354451283742,65.86349520030045,0.013541666666666667,13,0.21058363333333333,0.0010915597474358504,9.932884638911857e-07,32.08533333333334,0.013349989596334632,9.652780396262342e-06,51.98633333333334,0.12351743016900749,0.4399999999999977,-0.00014065976037862534
S015,8948.0,8977.984375,N1,0.15565104166666663,32.1633021890033,-89.12,72.3,161.42000000000002,4.734999999999999,67.19478400123018,1171.875,1182.1451822916667,0.11180339887498948,0.1529193630552463,0.4405535797121869,64.95625514807632,0.305369401449939,65.88626564011653,0.010416666666666666,10,0.21214172499999995,0.0010314649045774687,7.863862810292671e-07,32.12133333333334,0.014313940369056222,1.562500423855458e-05,52.90866666666667,0.49526917484894617,1.4500000000000028,-0.0005536807057510596
S015,8978.0,9007.984375,N1,1.0732187499999994,64.78419438198627,-328.51,463.04,791.55,7.12,146.99655444856796,1171.875,1098.6246744791667,0.4313858481684349,0.11110243021644486,0.3650532685634918,65.02005178045593,0.24822664407946368,65.85590330410783,0.005208333333333333,5,0.2117361583333333,0.0019138366440034941,-8.431953242174833e-07,32.149333333333324,0.011527744310525391,1.1319447515039169e-05,53.69066666666667,0.5133090903366336,1.6499999999999986,0.0007102085259897261
S015,9008.0,9037.984375,N1,-0.6317447916666663,50.81605193333224,-279.76,170.52,450.28,3.9800000000000004,163.27032674282734,968.75,1040.7063802083333,0.4962872134801469,0.08533405557962581,0.2661371696241537,65.07597070547712,0.191798696252774,65.88626564011653,0.007291666666666667,6,0.21309154999999996,0.0012706766888158484,1.0904035075964407e-06,32.17899999999999,0.02071231517720963,2.5451395793023976e-05,52.76800000000001,0.7079331418526282,1.9299999999999997,0.0007820835454870741
S015,9038.0,9067.984375,N2,-0.4907864583333334,40.44130388286296,-181.07,117.42,298.49,4.74,92.5210024499926,1203.125,1166.8782552083333,0.45025913642096765,0.11987768650679835,0.15811388300841897,65.11091988731081,0.1383947067678451,65.80273550544841,0.0125,11,0.2150982666666667,0.0010233876158241458,1.9986637366166881e-07,32.20366666666667,0.02121058435991011,1.260417008576614e-05,53.065333333333335,0.3119266295496779,0.8699999999999974,-0.0004934723560851653
S015,9068.0,9097.984375,N2,0.15047395833333355,55.908129873689035,-409.52,233.46,642.98,8.375,30.00796724417662,1203.125,1201.8717447916667,0.4679843283671177,0.27161545721335933,0.16862135013758556,65.08009731437316,0.22289807473372122,65.80273550544841,0.022916666666666665,21,0.2162082416666667,0.0011608081021127318,1.2103330106155117e-06,32.24,0.01693123346560136,1.590278209168491e-05,52.098,0.8964091327810827,2.4399999999999977,-0.0014788198456000008
S015,9098.0,9127.984375,N2,-0.21773437500000006,35.09364746085147,-152.33,68.85,221.18,7.83,40.25833420592591,1203.125,1206.3151041666667,0.49553562491061687,0.1496378730654628,0.12849286620924397,65.11031405821639,0.14113790099024076,65.80273550544841,0.014583333333333334,14,0.2167204916666667,0.0010176370177674152,1.8317431184199004e-07,32.267333333333326,0.014360439485692432,1.0694447345499441e-05,50.712,0.42856660314743816,1.3000000000000043,0.0007071529696052988
S015,9128.0,9157.984375,N2,-0.27188541666666666,35.03926052015611,-104.35,58.94,163.29,7.45,49.275295466825256,1171.875,1165.6168619791667,0.44492581895749767,0.11987768650679834,0.16451739185333028,65.10398568643129,0.1338758415500766,65.80273550544841,0.009375,9,0.21805439166666668,0.0011365282537610783,1.0127674188279601e-06,32.281333333333336,0.015216949614017098,9.513891469697327e-06,51.861,0.19119536256579792,0.730000000000004,0.0003025348042900408
S015,9158.0,9187.984375,N2,0.24486458333333333,37.2675938747168,-216.14,163.95,380.09,8.14,99.52765509692217,1171.875,1136.1572265625,0.21358993356949715,0.0,0.12908263395549724,65.11431217855733,0.08717518787765116,65.79513659838392,0.007291666666666667,7,0.21862008333333335,0.0010431382505316374,8.202497884792103e-07,32.29466666666667,0.014313940369056609,1.1319447515041859e-05,51.592333333333336,0.5078561694898359,1.6699999999999946,-0.0008953821873324071
S015,9188.0,9217.984375,N2,-0.19844270833333363,46.66586803991321,-133.45,224.56,358.01,2.6399999999999997,41.07252261677172,1187.5,1183.056640625,0.3570714214271425,0.08507936450096985,0.1330685848120769,65.11046322031528,0.10446324378989005,65.80273550544841,0.007291666666666667,7,0.219901025,0.0010944348196101033,7.180607416614408e-07,32.311666666666675,0.0141617638574985,7.465279802864202e-06,51.577333333333335,0.585530718427498,1.529999999999994,0.0009313196970810806
S015,9218.0,9247.984375,N2,0.41364583333333343,34.82982046291271,-96.56,72.23,168.79000000000002,7.17,38.99647197361435,1187.5,1180.7291666666667,0.37727176461405115,0.09636964965693294,0.14728076338710663,65.11897390414839,0.11844550437560793,65.80273550544841,0.016666666666666666,15,0.22068029166666664,0.0011044108715799104,6.110212160973372e-07,32.321333333333335,0.011756794725698098,1.597222655497169e-06,51.67400000000001,0.08837797614036438,0.3300000000000054,0.00010208336102521824
S015,9248.0,9277.984375,N2,-0.3784270833333333,29.980266466823913,-109.95,49.93,159.88,5.51,66.1667758098378,1140.625,1125.68359375,0.3247177593909654,0.11987768650679834,0.16770186322923059,65.10492561740506,0.1396197890271603,65.80273550544841,0.0125,12,0.22231344999999997,0.001041291192462515,7.629238180674444e-07,32.339333333333336,0.016316317667359668,1.2430558927559849e-05,51.593333333333334,0.3192421581739414,0.8599999999999994,-0.0004194445582260633
S015,9278.0,9307.984375,N2,-0.17183333333333325,33.52606182095091,-104.98,51.42,156.4,8.985,59.60626903223107,1125.0,1117.96875,0.39526274664947736,0.11557806855349138,0.19324531042175383,65.09829346097256,0.13957125694204375,65.80273550544841,0.008333333333333333,8,0.2232525,0.0015579327595674152,-9.063283708573068e-07,32.34966666666667,0.018162843634432425,1.3784725961568453e-05,52.492333333333335,0.37252904435612644,1.3099999999999952,0.0006646876803080725
S015,9308.0,9337.984375,N2,0.8567916666666668,47.609343131958845,-317.6,390.9,708.5,4.89,39.659336807307,1109.375,1115.7389322916667,0.13188915142607024,0.08507936450096985,0.1579903082470567,65.12180282255396,0.12401803796020328,65.80273550544841,0.015625,15,0.22276166666666664,0.0010077884560870047,-2.3198921223665765e-07,32.37,0.014142135623730146,8.125002204047474e-06,54.178,0.4491354658303734,1.3999999999999986,0.0006633335132740641
S015,9338.0,9367.984375,N2,-0.20882291666666647,58.780402899885,-464.71,328.71,793.42,7.305,57.331268033081265,1140.625,1134.521484375,0.16532992583014122,0.15925921720229852,0.17310168314702584,65.11432473389495,0.16685157739540246,65.80273550544841,0.022916666666666665,21,0.22341262499999998,0.001055048498589049,7.789281626866714e-09,32.38799999999999,0.009451631252505591,5.347223672749572e-06,54.711666666666666,0.543397235505993,1.5700000000000003,0.0008989238549598135
S015,9368.0,9397.984375,N2,-0.06300520833333323,33.1169407598534,-109.67,53.12,162.79,9.455,42.22362525739244,1109.375,1106.201171875,0.2565462379810357,0.1529193630552463,0.16598493384608404,65.12115406505997,0.15772307395555227,65.80273550544841,0.025,21,0.22418095833333332,0.0010447023212047356,7.714587596188063e-07,32.39199999999999,0.011944315244778646,2.083333898469454e-07,55.340999999999994,0.33097180141718063,0.9299999999999997,-0.0004604515137943568
S015,9398.0,9427.984375,N2,-0.4132083333333333,27.352913573449488,-89.56,76.28,165.84,3.815,31.974593507570432,1171.875,1157.470703125,0.2582808246366733,0.12801909579781012,0.1721462506046014,65.12650370404359,0.14781278879889634,65.80273550544841,0.026041666666666668,23,0.22524822500000002,0.001044992738910183,4.2642611393937666e-07,32.39866666666666,0.01231079020841163,1.31944480236659e-06,55.60566666666666,0.27079738222926497,0.8399999999999963,-0.0001198264213938868
S015,9428.0,9457.984375,N2,0.5528333333333334,33.34269570019131,-151.43,94.68,246.11,9.075,27.429209782118726,1140.625,1140.7796223958333,0.20810143343384793,0.09636964965693294,0.15436009824613214,65.1236852079485,0.12247422599069965,65.80273550544841,0.016666666666666666,15,0.22618760833333337,0.0011019326831816375,2.0348942151948183e-07,32.41599999999999,0.014742229591664203,1.2986114633820832e-05,54.58600000000001,0.1813210780172378,0.7299999999999969,-0.00025750006985136446
S015,9458.0,9487.984375,N2,-0.332390625,28.87591242540217,-87.73,47.76,135.49,7.074999999999999,40.896221927941355,1140.625,1135.8154296875,0.13928372696486202,0.11110243021644486,0.13238185901860655,65.12286222311049,0.12206229190058208,65.80273550544841,0.015625,15,0.22730846666666668,0.0010054085979783903,3.3089418698302095e-08,32.43333333333333,0.01043498389500065,-6.944446328247159e-08,53.53966666666667,0.5625624903560096,1.8999999999999986,-0.0010012849938381603
S015,9488.0,9517.984375,N2,-0.016145833333333273,34.34086881514113,-92.29,97.12,189.41000000000003,9.600000000000001,34.13142111501997,1125.0,1121.7041015625,0.09090593428863095,0.10642856726723121,0.16080513029923998,65.12374916320314,0.13464123266678107,65.80273550544841,0.019791666666666666,17,0.22679607500000004,0.0010610219693177826,-6.5328793763235e-08,32.45333333333333,0.010434983894998001,9.236113616565194e-06,52.787,0.09970456358662824,0.29999999999999716,0.00016871532354473815
S015,9518.0,9547.984375,N2,0.502875,31.505431918642355,-92.88,50.34,143.22,9.195,34.145955228093385,1125.0,1117.7652994791667,0.09090593428863095,0.08507936450096985,0.12499565964686757,65.11831700673909,0.10507240283492277,65.80273550544841,0.008333333333333333,8,0.22767142499999998,0.0010588717553958007,4.834330738479451e-07,32.46533333333334,0.0123107902084119,2.4305562148854695e-06,53.164999999999985,0.14543612572764342,0.4100000000000037,0.00022545145004651028
S015,9548.0,9577.984375,N2,-0.37510937500000024,33.4577543965352,-147.58,107.11,254.69,7.9,41.64630392322993,1093.75,1107.0638020833333,0.5851014869234226,0.3638608913635662,0.29114350401572686,65.05051830249788,0.3076555049451679,66.55824516917495,0.04479166666666667,39,0.2280023333333333,0.001096736479540797,-2.840799381727254e-07,32.48433333333334,0.013337499349162207,1.1909725452942436e-05,53.53566666666666,0.18771757746382928,0.5499999999999972,0.000333507034914017
S015,9578.0,9607.984375,N2,-0.07505208333333323,34.618127201435776,-90.3,51.42,141.72,11.350000000000001,52.950238144118615,1125.0,1120.4671223958333,0.16862135013758553,0.3992166265707825,0.2639756801719095,65.01930608052213,0.3311019088494439,65.79513659838392,0.05,43,0.22922967499999994,0.0013579675141088608,1.6905740263058886e-06,32.50933333333333,0.02096558025802158,1.7986115990156712e-05,53.467333333333336,0.11935753944440315,0.4399999999999977,-5.625001525879274e-05
S015,9608.0,9637.984375,N2,0.16059374999999992,34.15932417793558,-96.06,49.29,145.35,11.915,36.575339436717826,1109.375,1101.1311848958333,0.11987768650679835,0.3781752147557473,0.26896591778616774,65.0403909790116,0.32377919014773093,65.79513659838392,0.058333333333333334,51,0.23137471666666662,0.001054262452960471,1.0100862115034246e-06,32.54366666666667,0.012775845264489957,1.2743059012329946e-05,53.521,0.056765599911683465,0.14999999999999858,-8.43403006565487e-05
S015,9638.0,9667.984375,N2,-0.3965364583333336,34.12887567328624,-91.34,46.43,137.77,10.385,51.58107435860411,1078.125,1088.4114583333333,0.1428261375083551,0.38863520991913336,0.25654623798103576,65.02782306858367,0.30437415732143186,65.79513659838392,0.03854166666666667,32,0.23262362499999997,0.0009792530747334957,8.36764549903588e-08,32.559333333333335,0.011234866364236902,4.305556723513239e-06,54.065666666666665,0.2826149716880229,0.9200000000000017,0.0005075348598998638
S015,9668.0,9697.984375,N2,0.524859375,33.21593105444371,-88.06,45.99,134.05,11.66,34.57326930273207,1109.375,1098.9013671875,0.15291936305524628,0.38608472506764047,0.2571123700511769,65.02869997974379,0.308645877669777,65.79513659838392,0.041666666666666664,39,0.23280509999999996,0.0009316040145898918,7.7838562781729e-08,32.58066666666667,0.013399834161496097,7.638890961071653e-06,54.53699999999999,0.032264531609801785,0.09999999999999432,4.2743067150352194e-05
S015,9698.0,9727.984375,N2,-0.7544062500000001,37.05455799900503,-94.43,52.74,147.17000000000002,11.215,33.23187387533808,1109.375,1090.4052734375,0.14627537173085564,0.3960402419753438,0.2738295800107959,65.02656384300333,0.33253286325635595,65.79513659838392,0.05625,51,0.23451307500000004,0.001037999383128422,9.523520378559076e-07,32.600666666666676,0.013399834161493434,1.2638892317406647e-05,54.587,0.0331813200460745,0.10000000000000142,-4.475695658554679e-05
S015,9728.0,9757.984375,N2,0.5081458333333332,32.063641997199355,-86.37,49.05,135.42000000000002,10.69,33.378942400443556,1093.75,1091.6422526041667,0.2157809420003434,0.49986868935473666,0.43597825625890513,64.9324269245812,0.3619051679510011,65.80273550544841,0.03854166666666667,32,0.23519616666666673,0.0009911037141602309,2.1512549238430097e-07,32.629,0.015132745950421224,1.8368060538210344e-05,54.73266666666667,0.1537082373271596,0.480000000000004,0.0002680556282702997
S015,9758.0,9787.984375,N2,-0.10762499999999993,37.583408598201615,-99.28,51.2,150.48000000000002,12.75,31.159408443253888,1093.75,1090.1936848958333,0.24762544169571912,0.45734267938700945,0.47761978573151903,64.84240666383543,0.40672231533413394,65.80273550544841,0.051041666666666666,47,0.23566575000000006,0.0010056057564970416,4.262870079988593e-07,32.65366666666666,0.010482790129009826,8.437502288817868e-06,55.120333333333335,0.05186413875587791,0.1700000000000017,1.9826394267142784e-05
S015,9788.0,9817.984375,N2,-0.25086979166666695,38.186685789515856,-93.85,75.54,169.39,12.155,62.030426434169975,1093.75,1079.5003255208333,0.19982631347136337,0.44385146531682074,0.48812282152024905,64.848851641008,0.39578930741952056,65.80273550544841,0.04479166666666667,40,0.23622063333333335,0.0010550542318867866,2.7680693272757345e-07,32.675666666666665,0.02011356645539459,2.2743061725007066e-05,55.14333333333334,0.05249338582674686,0.15000000000000568,-3.875001051161461e-05
S015,9818.0,9847.984375,N2,0.27482291666666675,37.19098340225726,-96.69,52.41,149.1,13.065,91.22018451818006,1078.125,1102.7994791666667,0.25302853099996453,0.4671953385630041,0.47530029798422063,64.85505767895111,0.3934803594317318,65.80273550544841,0.042708333333333334,36,0.2366901083333334,0.001013694092546607,3.6183061030561245e-07,32.70666666666666,0.02180723631172767,2.333333966290537e-05,55.400999999999996,0.219231232568111,0.7100000000000009,0.00039434038474945264
S015,9848.0,9877.984375,N2,0.23757291666666688,37.43857897505949,-118.8,56.52,175.32,12.605,37.41682860545435,1078.125,1073.1608072916667,0.24206145913796356,0.4535689874637472,0.47981726664950275,64.84137036414896,0.39240408501122354,65.80273550544841,0.03958333333333333,36,0.23813094166666673,0.0011112851816390615,5.006188423987757e-07,32.74333333333333,0.01885618083164279,2.305556180977921e-05,56.01733333333333,0.11281055900146159,0.3500000000000014,0.00017631949227416788
S015,9878.0,9907.984375,N2,-0.05613541666666668,39.634089987376974,-104.04,53.56,157.60000000000002,13.969999999999999,33.38775067197418,1062.5,1055.5094401041667,0.26339134382131846,0.4470376549358629,0.48491904930101487,64.84439985619413,0.39482986632658756,65.80273550544841,0.042708333333333334,39,0.2386539916666667,0.001037151953635803,4.3091526446269256e-07,32.782666666666664,0.0131487219488764,1.0763891808780384e-05,56.095666666666666,0.05846271366340204,0.1700000000000017,8.239585568464052e-05
S015,9908.0,9937.984375,N2,-0.25272916666666667,40.49936598975943,-101.09,54.09,155.18,14.645,39.584222582816956,1062.5,1061.7594401041667,0.28408104465197176,0.44385146531682074,0.4856937692620732,64.84201078983513,0.4045203714346517,65.80273550544841,0.05,45,0.239913575,0.001109027296496803,5.320836946841636e-07,32.81633333333333,0.015807874268505728,1.1145836356835198e-05,56.242,0.08396030808264916,0.25,0.00013284725825934816
S015,9938.0,9967.984375,N3,-0.13725520833333302,40.015556209656786,-106.15,58.67,164.82,14.895,35.01779679041186,1046.875,1033.6263020833333,0.28558389261690204,0.44439018766044874,0.48765577995367004,64.84852915039023,0.39991711348110937,65.80273550544841,0.04791666666666667,43,0.24023379999999997,0.0009603105018690599,1.0454473322068538e-07,32.85,0.021447610589526264,2.6458340510616617e-05,56.60733333333334,0.14203129545592755,0.45000000000000284,0.0002545139579302192
S015,9968.0,9997.984375,N3,0.40957812500000024,38.99670819546745,-96.24,55.35,151.59,15.120000000000001,53.754267929727305,1031.25,1024.4384765625,0.26506476868347145,0.4501145205358546,0.48789046862487484,64.85754609182784,0.3976052645865521,65.80273550544841,0.04791666666666667,43,0.24159973333333326,0.0010181249082941127,6.96366074318056e-07,32.90066666666666,0.01691810338726561,1.9583338645654005e-05,57.538666666666664,0.2955642438154898,1.0799999999999983,0.0005175695848441805
S015,9998.0,10027.984375,N2,0.24873958333333326,37.86927146137771,-98.3,52.64,150.94,13.86,40.14404428029624,1031.25,1029.1015625,0.28855482821967976,0.43480194844894615,0.4871793817476268,64.83416184032465,0.39686285950763345,65.80273550544841,0.042708333333333334,39,0.2425388333333333,0.0010316555976789066,4.6749144625961434e-07,32.94533333333333,0.015216949614017846,2.0069449888631676e-05,58.23366666666666,0.12128433076407281,0.3999999999999986,0.0002025347771632975
S015,10028.0,10057.984375,N2,-0.26099479166666645,40.92477529845631,-104.81,57.45,162.26,14.165,50.348695170754354,1031.25,1032.763671875,0.3222624421139116,0.4261919050504779,0.4931815908944921,64.84434504081784,0.40758380818752926,65.80273550544841,0.05416666666666667,48,0.24320056666666665,0.0010867178546225989,1.2729951369886948e-07,32.97766666666667,0.013585122581543702,1.7534726978822385e-05,58.20233333333333,0.08495815963689975,0.2700000000000031,2.184028370233422e-05
S015,10058.0,10087.984375,N2,0.1158072916666668,42.27077262983586,-102.9,56.51,159.41,15.705,35.283829707247655,1046.875,1031.4534505208333,0.302757867592056,0.42934361238988983,0.494022428359505,64.8516583540773,0.40040653428971484,65.80273550544841,0.05,45,0.24320058333333333,0.0010612146781191554,2.5182558914539653e-07,33.013,0.016763054614240283,1.461805952095811e-05,58.13733333333334,0.05543364401596691,0.17999999999999972,-5.1458347292305456e-05
S015,10088.0,10117.984375,N2,-0.5489895833333333,43.936034460147,-104.01,57.64,161.65,14.745000000000001,36.95066455036411,1062.5,1050.2848307291667,0.3210226714043037,0.4229525846816507,0.4919093680637611,64.83556653185236,0.3996613071244624,65.80273550544841,0.04583333333333333,41,0.244385475,0.000996326979146397,2.2823378587070793e-07,33.066,0.015832456116052492,1.9027782939396847e-05,57.868,0.14420818284688236,0.4099999999999966,-0.00025520840256304224
S015,10118.0,10147.984375,N2,0.06708854166666688,41.09495694567839,-106.41,57.43,163.84,14.975000000000001,39.60554603931731,1046.875,1036.3932291666667,0.3222624421139116,0.40385377708260806,0.49418383718061387,64.82431596594117,0.3909619092594503,65.80273550544841,0.0375,34,0.24496190833333337,0.0009712474281032696,5.0066050907674e-07,33.11266666666668,0.01526069752301272,2.0833338984737655e-05,57.45066666666666,0.08932835807041063,0.3200000000000003,-0.00012798614582957483
S015,10148.0,10177.984375,N2,0.08612499999999988,42.2261844685977,-109.6,66.22,175.82,15.84,32.062842650025374,1031.25,1031.0628255208333,0.32349410736518835,0.41197356981027583,0.4956746507286812,64.83986757097206,0.39119267904750704,65.80273550544841,0.040625,36,0.24573052500000003,0.0010234090821245438,5.167924578972599e-07,33.15799999999999,0.00979795897113236,1.2222225537712261e-05,57.55033333333334,0.1293956035660495,0.45000000000000284,0.0002280208951879601
S015,10178.0,10207.984375,N3,0.24596354166666648,46.1303555044552,-111.3,63.61,174.91,18.59,37.58729381797213,1031.25,1030.2897135416667,0.3376735664810025,0.42425895361467886,0.49171852657287596,64.83648347381728,0.4007731063241964,65.80273550544841,0.046875,44,0.24626422500000006,0.0010964048177452554,-5.804537164859308e-08,33.20433333333333,0.025124136248281467,3.5104176189283406e-05,58.109,0.1312846779584982,0.3999999999999986,0.00020565977801100682
S015,10208.0,10237.984375,N2,0.3167343750000001,49.12020400265838,-121.6,73.65,195.25,18.63,44.508960045660984,1031.25,1023.6653645833334,0.3736070773739289,0.3952352938440594,0.4958114490968875,64.82419839756315,0.38645022970210124,65.80273550544841,0.034375,32,0.24731009166666673,0.0010323238348166539,3.465931929777552e-07,33.257333333333335,0.018961950204438114,2.6319451584053744e-05,58.067,0.08858705699291934,0.21000000000000085,-0.00015031254077488705
S015,10238.0,10267.984375,N3,-0.04239062500000017,50.704411878260935,-146.92,264.01,410.92999999999995,15.79,37.20664588459434,1046.875,1031.1116536458333,0.4000000000000001,0.3808556134073501,0.49859176687947826,64.83002032248186,0.39360299785871616,65.80273550544841,0.041666666666666664,39,0.24784365000000003,0.0010965029993119067,5.927475566264002e-07,33.315666666666665,0.021241991955139723,3.100695285561899e-05,58.11033333333333,0.11420692720768891,0.5200000000000031,3.947917737607882e-05
S015,10268.0,10297.984375,N2,-0.22088541666666703,49.665918773878914,-118.67,71.09,189.76,17.72,33.15881402778638,1046.875,1026.3590494791667,0.42872018644319615,0.3790736493047521,0.4986690184185855,64.82957011790488,0.38832545755998976,65.80273550544841,0.0375,33,0.24844123333333334,0.0010385293506792327,8.40648231512652e-07,33.379,0.02314447378245167,3.718751008775565e-05,59.11533333333333,0.18378852581764288,0.7000000000000028,0.00030909730607023305
S015,10298.0,10327.984375,N3,-0.0680364583333334,49.79685225732902,-132.55,112.19,244.74,19.375,35.16889180018353,1015.625,1015.2669270833334,0.44385146531682074,0.405366293119226,0.496462092586131,64.83844461798361,0.3927142990414103,65.80273550544841,0.041666666666666664,40,0.24932704999999997,0.0010885426254860246,6.098382730681098e-07,33.45366666666667,0.023019315560826006,3.6006954211955735e-05,59.327666666666666,0.08027798923463163,0.3300000000000054,5.197918076692271e-05
S015,10328.0,10357.984375,N2,0.27728124999999976,50.20657620546401,-119.98,64.46,184.44,20.0,30.885682514969954,1031.25,1026.5055338541667,0.42682919267808084,0.3877897102489956,0.4984306970103488,64.83496691689416,0.3991948796106492,65.80273550544841,0.046875,44,0.25041584999999994,0.0010325545155099552,2.023802632324928e-07,33.53,0.030441200151549008,4.756945734848537e-05,58.69866666666667,0.10455407957394801,0.4299999999999997,-0.00016659726741462133
S015,10358.0,10387.984375,N2,-0.4561302083333335,54.437445956476466,-128.26,72.16,200.42,19.005,36.34682359834379,1031.25,1019.4905598958334,0.4427647022936926,0.38436088501635485,0.4976986970603355,64.82651021830655,0.38273957525052715,65.80273550544841,0.03229166666666667,29,0.25115242499999996,0.0011337131446600539,6.858133370804375e-07,33.616,0.02484619353811176,4.118056672649801e-05,58.57233333333333,0.03738835231577906,0.11999999999999744,-7.465279802864943e-06
S015,10388.0,10417.984375,N2,0.07896354166666632,52.64897878796261,-128.6,98.08,226.68,19.67,47.11573911873186,1015.625,1023.5188802083334,0.45011452053585455,0.3852251776558744,0.4958114490968875,64.81592844337968,0.38541538978860823,65.80273550544841,0.03229166666666667,30,0.25207046666666666,0.0010497704823224725,7.636325856208165e-07,33.69199999999999,0.029484459183328343,4.4513900964058e-05,58.49533333333334,0.044025245282930864,0.1700000000000017,4.90277910774185e-05
S015,10418.0,10447.984375,N3,-0.143989583333333,74.06545012914742,-502.84,323.56,826.4,12.885,29.110235163643967,1015.625,1027.1728515625,5.631257225763029,1.0216323403695131,0.7688572644226987,64.96069446710648,0.45282375295689603,66.55073252789934,0.1125,80,0.24582650000000003,0.009635440165520898,-9.169812817332036e-06,33.78,0.027688746209726625,4.4097234184362205e-05,58.64933333333333,0.06577402391691049,0.3200000000000003,4.9513902320396154e-05
S015,10448.0,10477.984375,N2,0.5925104166666669,49.613496253223694,-116.69,64.49,181.18,18.025,37.20647233535988,1046.875,1045.9147135416667,0.28408104465197176,0.08507936450096985,0.1644514239322157,64.99944725600662,0.1406167852118373,65.83312236253116,0.023958333333333335,22,0.24547432500000002,0.001127666093919205,1.0127353007636966e-06,34.03333333333333,0.1246684491851167,0.00022340283837967478,58.85333333333333,0.17635822130601758,0.6000000000000014,-0.00027895840900564505
S015,10478.0,10507.984375,N2,-0.37045833333333333,51.32590874234406,-159.54,68.94,228.48,14.945,56.248968020733095,1046.875,1049.6988932291667,0.42487232559388416,0.26999871398870695,0.15699820858850588,64.91265984190801,0.22062543388591707,66.24952830020754,0.09895833333333333,74,0.24843061666666666,0.0012474513296005705,1.3778441237641436e-06,34.45399999999999,0.10569137460865315,0.00018902782905485805,58.172,0.3212413422957894,1.0399999999999991,-0.0005095834715666981
S015,10508.0,10537.984375,N2,0.41705208333333343,51.15673303638164,-124.95,71.35,196.3,19.994999999999997,37.96030739970074,1031.25,1026.8880208333333,0.3259334884434075,0.2929269646127209,0.1541912987078785,64.90785891445915,0.23061759256120135,66.24952830020754,0.109375,82,0.24904955833333334,0.0009899749979657205,-3.213388458492975e-07,34.76033333333333,0.07525438340869108,0.00013364586958709642,57.24133333333334,0.18543162860981638,0.6000000000000014,0.00022722228386021104
S015,10538.0,10567.984375,N3,-0.5617395833333334,51.09811849107574,-126.74,74.31,201.05,17.975,35.838771045233315,1031.25,1022.8271484375,0.30138388852738773,0.2667236267291586,0.15021685713216965,64.90146063338915,0.2174457464275213,65.55913361233506,0.09791666666666667,79,0.2499781833333333,0.0010282741931940584,1.6430820429367484e-07,35.01066666666667,0.056799843505261814,0.0001000000271267437,57.81133333333333,0.3088768183093204,0.8999999999999986,0.0004851390204912712
S015,10568.0,10597.984375,N3,0.16481770833333384,52.06730235622227,-127.22,74.93,202.15,20.095,29.28402767353325,1046.875,1035.498046875,0.32714138285304106,0.24762544169571912,0.1682735042192389,64.89846879863394,0.21212636030750898,65.55913361233506,0.09479166666666666,77,0.25068272499999994,0.0008262615502218385,-2.538093136418492e-07,35.17866666666666,0.04080304999493085,7.034724130513117e-05,58.39500000000001,0.0650512618376206,0.1700000000000017,-0.00010843752941556249
S015,10598.0,10627.984375,N2,0.2646406249999999,54.854234800021125,-129.69,82.68,212.37,21.380000000000003,36.091804947401386,1031.25,1037.1826171875,0.38522517765587444,0.22008274564480418,0.20956925068657697,64.89183510744867,0.2158967060710258,65.55913361233506,0.09583333333333334,80,0.25136591666666663,0.0010392915101431095,3.87238386295133e-07,35.313333333333325,0.03533962208186173,5.7013904354898345e-05,57.95633333333333,0.1962393663078049,0.6099999999999994,-0.0003519098176838696
S015,10628.0,10657.984375,N2,0.15140625000000002,58.16038992341174,-136.89,84.84,221.73,22.57,27.478681402426158,1031.25,1035.3597005208333,0.42029668753816696,0.2304038573895845,0.19249988726547926,64.88619674463668,0.2170184699537707,65.55913361233506,0.09479166666666666,77,0.2525188166666667,0.000920681939138357,3.978165141646395e-07,35.419666666666664,0.033314994955559035,5.48958482247863e-05,57.70666666666666,0.06057135369866468,0.1699999999999946,-5.2569458704821696e-05
S015,10658.0,10687.984375,N3,-0.42434375000000046,65.06189216484051,-145.84,89.72,235.56,23.39,48.28444880780544,1031.25,1028.076171875,0.4330127018922193,0.19249988726547926,0.194978186101819,64.87218082945917,0.19671323447586125,65.55913361233506,0.078125,65,0.25257212500000004,0.0011992444743983658,5.0453572714182095e-09,35.531333333333336,0.035658877654177114,6.027779412917621e-05,57.75133333333334,0.06227537412350119,0.17999999999999972,0.00010631947328544486
S015,10688.0,10717.984375,N2,0.1414791666666667,62.62338178630832,-235.3,92.26,327.56,23.965,30.756999197039075,1046.875,1038.5091145833333,0.46005358987356626,0.17950549357115012,0.19741988090108856,64.86300661625314,0.19832053155088614,65.55913361233506,0.07395833333333333,64,0.2535327,0.0011071955382858168,7.880687901662346e-07,35.62333333333333,0.02371122565837053,3.631945429672539e-05,57.78366666666667,0.045642329281296155,0.13000000000000256,-3.1493064098597745e-05
S015,10718.0,10747.984375,N2,-0.7748906249999998,63.274308983851185,-150.24,101.51,251.75,20.759999999999998,43.615509126633235,1031.25,1026.5380859375,0.47696960070847283,0.1592592172022985,0.1798798789007079,64.84594071527276,0.17915845313655138,65.55913361233506,0.057291666666666664,52,0.2555709833333334,0.0011079007475351126,3.021033805618948e-07,35.708666666666666,0.03490304030055636,5.9444460569787375e-05,57.96033333333333,0.07413875879427476,0.23000000000000398,9.302085856685532e-05
S015,10748.0,10777.984375,N3,0.9801979166666668,64.17405743417659,-151.21,89.83,241.04000000000002,25.84,43.1933388597493,1015.625,1013.4033203125,0.4756391898160715,0.1529193630552463,0.20453835214941965,64.85387555012268,0.19048480919574795,65.55913361233506,0.06770833333333333,61,0.25586980000000004,0.0009565897553287785,2.55466215132976e-07,35.80100000000001,0.027000000000000003,4.385417856287424e-05,58.21833333333334,0.18332272696592333,0.5500000000000043,0.00032746536660844486
S015,10778.0,10807.984375,N3,-0.9599999999999997,66.52935770207014,-157.0,95.48,252.48000000000002,23.314999999999998,31.706359982334778,1015.625,1023.5188802083334,0.4717715118306743,0.1821904480893551,0.2387758130315734,64.87289710396729,0.2163438730502147,65.55913361233506,0.09375,76,0.2567451333333333,0.001031369614746432,1.0846791136824985e-08,35.88633333333333,0.02949387883763086,4.559029014493484e-05,58.62133333333334,0.06291440393282234,0.22000000000000597,6.14583500049783e-05
S015,10808.0,10837.984375,N3,0.3832968750000001,66.03690180351967,-154.61,93.11,247.72000000000003,21.095,45.994043360763214,1000.0,1002.7018229166666,0.4742684425044066,0.139283726964862,0.2242827108249764,64.85813713144474,0.1967600197601724,66.24952830020754,0.071875,66,0.2573215749999999,0.0009354492206287846,1.5095121282313663e-07,35.97566666666667,0.023048258550750024,3.427084262989429e-05,58.901666666666664,0.11977989072553931,0.4200000000000017,0.00020482644445161757
S015,10838.0,10867.984375,N3,-0.5164166666666669,78.5260296147434,-183.36,110.97,294.33000000000004,25.759999999999998,57.08760999637367,1046.875,1031.982421875,0.4854379018960326,0.11110243021644486,0.24446787095762817,64.85454811447151,0.19917881672529755,65.55913361233506,0.075,62,0.2574496833333333,0.0011981914286633083,7.464073205314964e-07,36.047,0.021625602111077884,3.1215286245465785e-05,58.78166666666666,0.20268338746812845,0.6000000000000014,-0.0003301737006764597
S015,10868.0,10897.984375,N3,0.8473697916666666,77.46937117546256,-174.38,110.12,284.5,28.66,35.96432187106271,1031.25,1021.4192708333334,0.4756391898160715,0.10152910775842672,0.23040385738958447,64.85334850731952,0.18669240697875208,65.55913361233506,0.06666666666666667,60,0.2587412916666666,0.0011690568734086019,8.244813434465466e-07,36.10866666666667,0.023055488621052878,3.5694454127182725e-05,58.757666666666665,0.13457794106844628,0.5,-0.0001794792153535194
S015,10898.0,10927.984375,N3,0.10033854166666718,78.99030609722504,-204.79,140.82,345.61,27.71,51.275553031777235,1031.25,1020.556640625,0.4742684425044066,0.12401959270615269,0.24446787095762817,64.86119726454308,0.19918017813818156,65.55913361233506,0.078125,70,0.25920032499999995,0.0009363121377911285,-1.4700025689026014e-07,36.17166666666665,0.02504440500834968,3.996528861905724e-05,58.72566666666667,0.21053397719977454,0.5700000000000003,0.0003268403664389006
S015,10928.0,10957.984375,N3,-0.2411302083333335,75.57704745561342,-174.75,117.42,292.17,22.675,49.27626315757486,1031.25,1016.0237630208334,0.47696960070847283,0.1462753717308556,0.2221950938302244,64.85788885224653,0.1965416740436517,65.55913361233506,0.07395833333333333,64,0.25959517499999996,0.0010584315492156253,3.7288920705544766e-07,36.24433333333333,0.023900255693659108,3.5104176189286666e-05,58.845333333333336,0.08980472642845122,0.25,0.0001494444849838565
S015,10958.0,10987.984375,N3,0.17275520833333308,71.42205128423862,-241.55,130.26,371.81,25.619999999999997,34.34918812059612,1015.625,1012.6383463541666,0.48600085555194467,0.11987768650679834,0.24206145913796356,64.85748427110784,0.1975492082174285,65.55913361233506,0.07708333333333334,69,0.2604808916666666,0.0010847980902440877,5.254652033054459e-07,36.30333333333333,0.023285665595429193,3.125000847710534e-05,58.908666666666676,0.11345287812812606,0.30999999999999517,0.00017097226860141759
S015,10988.0,11017.984375,N3,-0.030411458333333505,73.00808240065126,-167.72,105.06,272.78,27.439999999999998,38.1947029952729,1031.25,1014.1438802083334,0.481018838782733,0.1356408400888169,0.2242827108249764,64.85488447337522,0.19419048677472622,65.55913361233506,0.071875,62,0.26086510833333326,0.0009661716358549191,3.0297534260396756e-08,36.357,0.01968925256749457,2.6354173815690653e-05,58.86366666666667,0.10774919437698341,0.3299999999999983,-0.00017753477038161126
S015,11018.0,11047.984375,N3,0.14874999999999947,70.48118381880373,-164.18,104.27,268.45,25.425,46.75530870547319,1015.625,1029.1666666666667,0.47696960070847283,0.15612494995995993,0.23825719937822562,64.86602071508806,0.20762126521194235,65.55913361233506,0.08541666666666667,74,0.2617722416666666,0.0011943622216887327,1.1472987053219217e-06,36.418,0.019043809142781823,2.791667423955032e-05,58.82666666666667,0.22162029590169688,0.5899999999999963,-0.00035562509646948223
S015,11048.0,11077.984375,N2,0.2506822916666665,69.99932262472183,-159.45,102.82,262.27,26.125,29.658574518686308,1031.25,1033.0078125,0.4856937692620732,0.1496378730654628,0.2449821953564517,64.86022480667806,0.20963387254713386,65.55913361233506,0.084375,71,0.26339465,0.001028130525517068,2.5464329824308295e-07,36.461333333333336,0.019102065042525755,2.7152785143441392e-05,58.37566666666667,0.10756961570175025,0.36999999999999744,-0.00016315976648214158
S015,11078.0,11107.984375,N3,-0.9887291666666665,72.92562202875486,-169.29,107.69,276.98,23.53,46.34972883261988,1000.0,1019.4173177083334,0.47794114111990815,0.14994211846205488,0.2571123700511769,64.8687300367317,0.21151458962285502,65.55913361233506,0.090625,76,0.263362625,0.0008760657135026997,1.3927542840587736e-07,36.51166666666666,0.02017974782355349,2.8576396640732088e-05,58.15966666666668,0.08475389207713253,0.259999999999998,0.00013190975800503384
S015,11108.0,11137.984375,N3,1.1078020833333337,71.93698618092199,-176.37,111.56,287.93,27.810000000000002,35.28013559824047,1000.0,1012.9475911458334,0.48491904930101476,0.1529193630552463,0.23040385738958447,64.8590572140016,0.20562257707164355,65.55913361233506,0.08020833333333334,70,0.26402446666666674,0.001112991726034937,2.732578866259481e-07,36.568000000000005,0.018867962264114625,1.618055994481492e-05,58.65533333333333,0.1624137377878549,0.4799999999999969,0.0002820139653900719
S015,11138.0,11167.984375,N3,-0.2716875000000003,73.99354780053918,-179.02,120.37,299.39,26.265,42.35287188395827,1000.0,1003.7272135416666,0.47761978573151914,0.13188915142607024,0.24258983158592795,64.86069733314515,0.20244289270099172,65.55913361233506,0.07916666666666666,67,0.26517735000000003,0.0011141716328735014,-2.0039545366630215e-07,36.60533333333334,0.014313940369055119,1.4652781752598397e-05,59.12833333333333,0.15895666775012074,0.45000000000000284,0.0002718403515191929
S015,11168.0,11197.984375,N3,0.20381770833333354,78.84548269834816,-180.56,124.89,305.45,28.695,38.292372422049766,1000.0,998.8444010416666,0.4841229182759271,0.1561249499599599,0.21358993356949715,64.85420819419512,0.19475498451893317,65.55913361233506,0.07291666666666667,62,0.26469700000000007,0.0009403699537947882,2.5686725717970264e-07,36.638,0.013266499161420458,1.4027781583055191e-05,59.48833333333334,0.17138812353511804,0.5700000000000003,0.0003003125814650011
S015,11198.0,11227.984375,N3,0.0038645833333333713,78.91341717259913,-175.3,118.29,293.59000000000003,27.104999999999997,39.70815152970251,1000.0,997.3307291666666,0.47356783363690946,0.12801909579781012,0.24206145913796356,64.86288988930764,0.20231627275034747,65.55913361233506,0.07916666666666666,70,0.2657324,0.0010582927005323203,4.6169109746394817e-07,36.666999999999994,0.013453624047074838,1.822917161164755e-05,59.86433333333334,0.027770888034454808,0.10000000000000142,2.9479174663406314e-05
S015,11228.0,11257.984375,N2,-1.0418385416666665,81.11240253567482,-181.15,124.93,306.08000000000004,26.369999999999997,38.80557870162556,984.375,990.8854166666666,0.4763094159495718,0.17677362623014653,0.2263462809256845,64.86688561549536,0.21081321806200073,65.55913361233506,0.08645833333333333,70,0.265977875,0.0010757878784291037,4.2519955110664784e-07,36.71033333333333,0.02024571285207967,1.9131949634317803e-05,59.93733333333333,0.07447296302835216,0.21000000000000085,-0.00010173613870880534
S015,11258.0,11287.984375,N2,0.7789999999999999,83.62093262804078,-307.34,163.25,470.59,28.85,42.6935309833095,937.5,945.7356770833334,0.46186964363154814,0.16232629604869597,0.2594042821489696,64.878135014725,0.22006895384690278,66.06814663663572,0.09479166666666666,81,0.26586048333333334,0.000959329409738323,-1.614987417260056e-07,36.76200000000001,0.022861904265977458,3.52777873474918e-05,60.845,0.5838935405248686,1.8000000000000043,0.0010489933401132104
S015,11288.0,11317.984375,N3,-0.630723958333333,73.16312710767495,-187.08,133.38,320.46000000000004,21.365000000000002,56.00656118916779,921.875,924.6988932291666,0.48741875213265595,0.15644432360711874,0.25535709949772084,64.86532416041844,0.21921427227853163,65.55913361233506,0.09270833333333334,80,0.26670354999999996,0.0009312007020508473,3.9846104558947523e-07,36.809,0.018321208111548113,2.5451395793020893e-05,63.004000000000005,0.7745002689907002,2.4000000000000057,0.0013929170445195977
S015,11318.0,11347.984375,N3,0.5587239583333331,74.43676702750552,-170.37,112.07,282.44,25.6,43.031366365808374,953.125,954.2887369791666,0.47794114111990815,0.10152910775842672,0.2622828963320585,64.86366210622883,0.20697383644758002,65.55913361233506,0.08333333333333333,71,0.2678559916666667,0.0010047405593471422,4.0519477137444874e-07,36.84100000000001,0.014456832294800213,1.281250347561378e-05,63.97766666666667,0.14831685301707548,0.4399999999999977,-0.00025711812530330996
S015,11348.0,11377.984375,N3,0.27757291666666717,76.58680271937152,-171.45,116.11,287.56,27.049999999999997,45.025062175309834,953.125,940.7877604166666,0.4818944098266987,0.1529193630552463,0.2617030727062426,64.87301394185073,0.22448927318538617,66.24952830020754,0.096875,81,0.2690193916666666,0.0009698538661041805,8.125412360409174e-07,36.87433333333333,0.014761059883656181,1.9131949634318e-05,63.559666666666665,0.20449096692899527,0.7700000000000031,-0.0003454514825986003
S015,11378.0,11407.984375,N3,-0.10606770833333326,82.53973736369853,-185.31,128.26,313.57,26.885,41.98635484666261,984.375,968.5384114583334,0.48741875213265595,0.139283726964862,0.23488139737606575,64.85495930660792,0.2012544117039682,65.55913361233506,0.07708333333333334,69,0.2699480916666666,0.0009604879315208665,3.091187904510607e-07,36.90466666666666,0.014544949486180276,1.9027782939393395e-05,62.893,0.15253742710124193,0.45000000000000284,-0.0002708681290332383
S015,11408.0,11437.984375,N3,-0.8079375,85.49148694775263,-191.44,127.97,319.40999999999997,27.605,47.879870425679,968.75,979.0120442708334,0.4788903188622631,0.139283726964862,0.24393467007354425,64.86388570452046,0.2073595369748186,66.24952830020754,0.08229166666666667,66,0.2707487,0.000910202373101715,4.1726052985582995e-07,36.93066666666665,0.01590248058917065,1.2986114633822509e-05,62.251999999999995,0.3436703847196225,0.9000000000000057,-0.0006011807186362629
S015,11438.0,11467.984375,N3,0.45878645833333354,84.15679835219433,-182.18,129.08,311.26,29.97,40.46670117258929,968.75,980.1595052083334,0.4859472690157738,0.1462753717308556,0.2645423196558329,64.8675542547175,0.21982192326487876,65.55913361233506,0.09479166666666666,83,0.2709407916666667,0.0008732821031014023,4.188340979910176e-07,36.95666666666668,0.01885618083164103,2.3472228589471453e-05,61.46900000000001,0.14290672948931885,0.490000000000002,-0.0002476736782968962
S015,11468.0,11497.984375,N2,0.3107968749999994,87.74865794819166,-196.56,136.76,333.32,30.375,55.0565324066441,968.75,975.8951822916666,0.48012133159812376,0.14311453746329664,0.2622828963320585,64.86864090227958,0.2190186242494301,65.55913361233506,0.09270833333333334,78,0.27167709999999995,0.0010479281893335972,4.4067373065151087e-07,36.982000000000006,0.014696938456699237,1.3611114803361644e-05,60.964000000000006,0.12857164021146655,0.44000000000000483,-9.479169238055944e-05
S015,11498.0,11527.984375,N3,-0.01844270833333326,89.11389826147263,-203.39,145.31,348.7,28.65,41.14281929018472,968.75,966.5283203125,0.4818944098266987,0.11110243021644486,0.2468464294297615,64.85538348467426,0.19912238073478772,65.55913361233506,0.075,66,0.27136768333333333,0.0009433925922199851,1.386853674819236e-07,37.014333333333326,0.018199511592958014,2.1840283702333355e-05,61.467,0.227319892075756,0.6300000000000026,0.0003840626041836493
S015,11528.0,11557.984375,N3,0.18351562499999982,93.33847476492458,-220.19,180.63,400.82,28.115000000000002,64.06129613639423,968.75,966.1051432291666,0.4604956097480433,0.1428261375083551,0.2611323499045391,64.87424775287,0.21818226151638181,65.55913361233506,0.09166666666666666,76,0.27174116666666664,0.0009544060223801761,3.735083478484013e-07,37.05533333333334,0.014544949486181576,1.7638893673746156e-05,62.062999999999995,0.3196159153317202,0.8800000000000026,0.0005157987510304776
S015,11558.0,11587.984375,N2,-0.7130052083333336,100.00965268923198,-231.31,168.64,399.95,28.9,41.98711197019424,953.125,959.1959635416666,0.4454583703582437,0.15612494995995993,0.22683472629991105,64.86899588660506,0.20113676180328371,65.55913361233506,0.078125,70,0.2733205083333334,0.0009837573464006478,3.2466523564052757e-07,37.09133333333334,0.014544949486180772,1.708333796748557e-05,62.148999999999994,0.060901559914340715,0.25,2.3923617600806936e-05
S015,11588.0,11617.984375,N3,0.029682291666666433,93.33662944358257,-208.5,146.8,355.3,28.645,43.03434663107026,953.125,956.5755208333334,0.4359782562589052,0.1496378730654628,0.23290278357551297,64.87181918391431,0.20205387778635123,65.55913361233506,0.07916666666666666,68,0.2735446583333333,0.0010147456372233926,4.0493869491610213e-07,37.11600000000001,0.01280624847486611,2.847222994581311e-06,62.273333333333326,0.1628359774606198,0.46999999999999886,-0.00020576394470593138
S015,11618.0,11647.984375,N3,-0.5697760416666662,95.64634616105447,-215.84,155.54,371.38,27.95,43.114616108319915,937.5,944.9137369791666,0.4287201864431962,0.1874276480775686,0.25642566810654677,64.88869303987734,0.22410691624432438,65.55913361233506,0.10208333333333333,84,0.27421710000000005,0.0009413389081515746,2.2684381153532212e-07,37.13966666666666,0.011685698761970346,1.3854170424848778e-05,62.71266666666667,0.23222020201141497,0.6700000000000017,0.0004084723330274347
S015,11648.0,11677.984375,N3,0.44020833333333326,95.60991353301148,-214.8,149.12,363.92,28.46,41.84639553158472,937.5,940.6819661458334,0.42682919267808084,0.15612494995995993,0.2559004221209232,64.88253051960308,0.21395102112873085,65.55913361233506,0.09270833333333334,81,0.27470815000000004,0.0010192249395987063,7.950653198419345e-08,37.16066666666666,0.010624918300339957,1.2083336611148971e-05,63.232,0.15948667655951682,0.44999999999999574,0.0002840278548252638
S015,11678.0,11707.984375,N3,0.9891666666666673,92.7073601027568,-206.49,148.68,355.17,29.975,53.13200000695827,953.125,946.4925130208334,0.45011452053585455,0.15925921720229852,0.24944382578492943,64.87903779059984,0.21417757255566147,65.55913361233506,0.09270833333333334,82,0.2751565000000001,0.0009690172083095184,1.6068103317084935e-07,37.17999999999999,0.01732050807569025,1.3819448193210712e-05,63.728,0.20038962048968395,0.5699999999999932,-0.0001226389221568246
S015,11708.0,11737.984375,N3,-0.30697916666666686,100.10979065266494,-216.14,156.76,372.9,28.59,41.78895172093681,937.5,944.5638020833334,0.4405535797121869,0.13188915142607024,0.2605749518959095,64.87838241110174,0.2083563906165366,65.55913361233506,0.08958333333333333,76,0.275871725,0.0009825060301977702,-1.0285810081871337e-08,37.191,0.0166032125405501,1.6076393249890022e-05,63.298,0.0927146158919949,0.2700000000000031,-0.00015020837407996406
S015,11738.0,11767.984375,N2,-0.5784114583333332,96.64280146728615,-216.92,159.47,376.39,27.325000000000003,41.14860171247928,921.875,940.52734375,0.4564164460470528,0.15021685713216965,0.2770050014590591,64.88281542475139,0.22696378046767665,65.55913361233506,0.10208333333333333,81,0.27635206666666673,0.001068264408072996,-2.551649997734907e-07,37.22366666666667,0.014715826703095123,2.951389689504389e-06,63.30433333333334,0.16926671918077243,0.5100000000000051,0.00021857644818154572
S015,11768.0,11797.984375,N3,0.4552812499999998,98.35522729141498,-212.29,150.49,362.78,29.845,44.169979780917636,921.875,937.0198567708334,0.42746299181917496,0.12801909579781012,0.24393467007354425,64.8750844129372,0.20022257849628242,65.55913361233506,0.08020833333333334,71,0.276106575,0.0009875961696842411,1.4483532574742688e-07,37.239333333333335,0.01339983416149506,1.0277780565804685e-05,63.73266666666667,0.1039850416593117,0.3200000000000003,0.00017604171442103683
S015,11798.0,11827.984375,N3,-0.6002604166666662,101.3954344994291,-219.86,161.28,381.14,25.84,46.797618573479404,937.5,925.0244140625,0.42029668753816696,0.12801909579781012,0.27118566825454965,64.88459326836026,0.21883722899022978,66.24952830020754,0.09270833333333334,80,0.27699255833333336,0.0009745507152515135,5.308770971346353e-07,37.254666666666665,0.014313940369058163,1.27083367806923e-05,63.97866666666667,0.1406824635679779,0.4999999999999929,0.0002117361685482219
S015,11828.0,11857.984375,N3,-0.49631250000000005,102.11337750595256,-221.78,160.52,382.3,26.700000000000003,41.91445660057737,906.25,905.9326171875,0.44439018766044874,0.12401959270615269,0.2807402788462437,64.88352243642458,0.21979060183683663,65.55913361233506,0.09895833333333333,80,0.2776543166666666,0.000908326868325629,2.8511292456414464e-09,37.27066666666666,0.01209223809814432,1.0069447175956605e-05,64.877,0.34834035080650694,1.0500000000000114,0.0006242015582143992
S015,11858.0,11887.984375,N3,1.477348958333334,101.40179526888677,-236.01,173.28,409.28999999999996,30.67,47.98193577427941,921.875,918.8232421875,0.45161265821005897,0.14657179104642054,0.26339134382131846,64.88026284935586,0.2199263478863132,65.55913361233506,0.09583333333333334,76,0.2778998,0.0009273263233619647,-5.198178493429516e-08,37.28333333333333,0.011925695879997564,2.7777785312986664e-06,65.54533333333333,0.13032608675506652,0.37000000000000455,-0.00013763892622583806
S015,11888.0,11917.984375,N3,-1.487286458333333,102.27545461675435,-225.08,163.26,388.34000000000003,25.189999999999998,62.470364962200854,921.875,921.1507161458334,0.41620286686769575,0.12801909579781012,0.25535709949772084,64.88012042602708,0.20456906956784168,65.55913361233506,0.08541666666666667,71,0.27842262500000003,0.0010479042582101723,5.92429197165041e-07,37.29533333333334,0.012578641509409166,8.194446667331672e-06,65.38666666666667,0.10580905233275482,0.29999999999999716,-0.00017041671289516017
S015,11918.0,11947.984375,N3,1.1893593749999996,104.62740147958779,-223.69,159.77,383.46000000000004,29.335,47.63287247064882,921.875,924.560546875,0.4299636107826129,0.1529193630552463,0.2916592260955697,64.89237427954767,0.2340093226803472,65.55913361233506,0.11041666666666666,92,0.2789241333333334,0.0009704279033269556,-4.2323535786549124e-07,37.31466666666667,0.013349989596332951,1.1597225368169721e-05,65.03233333333334,0.12976089121491352,0.45000000000000284,-3.1145841782185834e-05
S015,11948.0,11977.984375,N3,-0.5307760416666667,105.76880829427697,-217.65,158.38,376.03,27.32,56.123414479539676,906.25,919.287109375,0.4119735698102759,0.1529193630552463,0.24919793212424535,64.87999004674467,0.21266139200120168,65.55913361233506,0.08645833333333333,75,0.278742725,0.0010046212467268473,6.252364977312563e-07,37.33333333333334,0.009067647005824611,1.2361114464280635e-05,65.13133333333334,0.07242160512505373,0.269999999999996,-4.381945633123185e-05
S015,11978.0,12007.984375,N2,-0.9649479166666667,105.39753473307516,-222.57,159.49,382.06,25.15,36.26080636934029,906.25,915.7958984375,0.42490680146422166,0.1682735042192389,0.24069263118827158,64.88133497461403,0.20885859313558372,65.55913361233506,0.08854166666666667,75,0.27912689999999996,0.0011180320836183504,6.141295068710648e-07,37.347666666666676,0.015638272140984864,1.3298614718589276e-05,65.286,0.1819084018583712,0.5499999999999972,0.0003143750852797007
S015,12008.0,12037.984375,N3,1.4108333333333334,104.5943347331197,-222.95,164.83,387.78,25.775,50.66827711256379,890.625,893.0989583333334,0.41339864235384227,0.194978186101819,0.25693294831639546,64.8921684856424,0.22640869609307723,65.55913361233506,0.103125,90,0.2798418833333333,0.0008591249150863976,3.8999793565481984e-07,37.36233333333334,0.015423647068343479,1.2118058842787037e-05,66.03566666666669,0.4161624949730852,1.0,0.0007011460235313679
S015,12038.0,12067.984375,N3,-0.2643333333333338,101.62681367679114,-216.57,157.83,374.4,25.895,41.5372993918224,906.25,904.8095703125,0.4152044656116898,0.17116012950028858,0.2650647686834714,64.89612506234022,0.22415075231888335,65.55913361233506,0.10625,87,0.28040761666666664,0.0009885347252654075,2.435113507789036e-07,37.37866666666667,0.014079141387962167,1.6944449040921145e-05,66.70266666666666,0.16120242622932712,0.4899999999999949,0.00018944449583455122
S015,12068.0,12097.984375,N3,-0.26343749999999994,103.7709621336428,-218.79,162.37,381.15999999999997,24.05,54.17237801885689,906.25,906.2418619791666,0.4168944689773286,0.15612494995995993,0.25885154676742594,64.88730679719934,0.2138923548433481,65.55913361233506,0.09479166666666666,82,0.28048234166666663,0.001078019963450226,-6.057265097999451e-07,37.39399999999999,0.011999999999999272,9.583335932979277e-06,66.143,0.34204434410370593,0.9200000000000017,-0.0005261459760595664
S015,12098.0,12127.984375,N3,-0.43632812500000007,107.57694057000668,-233.81,170.98,404.78999999999996,24.46,41.63483675483752,890.625,908.251953125,0.4141054092022411,0.16532992583014125,0.24869232650785364,64.88402452278382,0.21366654734964474,65.55913361233506,0.09166666666666666,77,0.2804610166666667,0.0011026376027759809,3.059979128683559e-07,37.40133333333332,0.011175369742825193,1.1180558588474374e-05,65.79833333333333,0.16671499299369996,0.480000000000004,-0.00017795143716130526
S015,12128.0,12157.984375,N3,0.8943593749999995,103.24548803300284,-234.08,167.52,401.6,28.695,50.14436860343062,921.875,916.9921875,0.43480194844894615,0.1496378730654628,0.26896591778616774,64.88692445752616,0.22256334669865221,65.55913361233506,0.1,85,0.28100539999999996,0.001051148771582791,5.748933851164832e-07,37.40733333333331,0.009977753031396266,-5.555557062600195e-07,66.12100000000001,0.16444553302942966,0.5200000000000102,-0.0001696181015674117
S015,12158.0,12187.984375,N3,0.11615104166666629,102.61263348616859,-221.83,160.38,382.21000000000004,25.17,46.2692540274383,890.625,891.845703125,0.4287201864431962,0.1496378730654628,0.2862290749265932,64.89630072238978,0.23351134694137496,66.24952830020754,0.11041666666666666,88,0.2823718,0.0010709105518202657,7.639298947292467e-07,37.41266666666665,0.014360439485692014,1.638889333466078e-05,66.262,0.19103926298015386,0.5700000000000074,0.00028659729996671784
S015,12188.0,12217.984375,N3,-0.5083437499999997,107.19227835494263,-231.64,175.47,407.11,26.020000000000003,48.80515952984828,921.875,923.3723958333334,0.42490680146422166,0.13188915142607024,0.2738295800107959,64.88744365527661,0.22095825390914647,66.24952830020754,0.096875,86,0.28327914166666673,0.0010544741682929897,5.55149673163423e-07,37.428,0.009451631252506695,1.0208336102523325e-05,66.321,0.06177108277071604,0.23000000000000398,4.781251296997243e-05
S015,12218.0,12247.984375,N3,-0.4889895833333334,108.52632799866994,-227.41,176.45,403.86,23.71,43.18980374335741,906.25,905.517578125,0.4168944689773286,0.12401959270615269,0.2956865833201695,64.89637758003738,0.2276920198164769,65.55913361233506,0.10833333333333334,94,0.28367403333333335,0.0010190025755064914,-1.0282207650338354e-07,37.43933333333333,0.009977753031398737,1.3888892656494357e-07,66.07166666666666,0.10266720779078091,0.4299999999999926,-0.0001683681012283234
S015,12248.0,12277.984375,N3,0.7479635416666662,110.62453814578129,-227.24,184.89,412.13,26.22,45.84543400752664,890.625,889.7705078125,0.43719111119547405,0.15644432360711874,0.26509137575560615,64.88178408095291,0.21633956166093235,65.67343450741707,0.09375,82,0.2841756833333334,0.0010912233424260763,8.089585527773553e-08,37.45000000000001,0.012649110640673622,8.888891300155524e-06,66.135,0.2675911059807486,0.769999999999996,0.0004710070722132906
S015,12278.0,12307.984375,N2,-0.47502083333333284,109.67916507648373,-233.51,180.78,414.28999999999996,21.950000000000003,54.8022323110412,875.0,874.1861979166666,0.43240962246141357,0.17950549357115012,0.2760220118788838,64.8961796135464,0.23371257203013562,65.55913361233506,0.11354166666666667,96,0.2837594583333333,0.001017267146950033,4.713536434878537e-07,37.46333333333334,0.011925695879997564,1.0555558418932178e-05,67.19666666666667,0.4833862040048541,1.3700000000000045,0.0008527085646453354
S015,12308.0,12337.984375,N3,0.8906562499999993,111.8627315604867,-244.53,189.69,434.22,23.085,40.080323500851584,875.0,876.4485677083334,0.42555111326373,0.1592592172022985,0.2733834271931803,64.8894549331105,0.22428809707244074,65.55913361233506,0.103125,86,0.2844317333333334,0.0010476478872004386,3.1545017237688723e-07,37.472666666666676,0.011234866364235468,-7.083335254811486e-06,68.25,0.1835574387850655,0.5999999999999943,0.000325625088331457
S015,12338.0,12367.984375,N3,-0.2163541666666665,121.5569792672675,-253.08,211.25,464.33000000000004,18.950000000000003,40.491389778730834,890.625,878.1901041666666,0.40385377708260806,0.2026275961174423,0.2880655668998524,64.90858992948658,0.2457031388114387,65.55913361233506,0.12604166666666666,108,0.2848158916666667,0.001109723207199533,1.1284549502102183e-06,37.48166666666667,0.011571036638474159,-7.986113277484352e-07,68.51366666666667,0.08428061593404598,0.27000000000001023,-8.906252415975225e-05
S015,12368.0,12397.984375,N3,0.1692604166666668,109.63542119259641,-242.62,193.62,436.24,21.775,39.35669969895441,875.0,880.3792317708334,0.41962362227953753,0.1821904480893551,0.2991887178502707,64.90899160525792,0.24557847738605001,65.55913361233506,0.128125,103,0.285562925,0.0009835225820361334,3.5149553805760386e-07,37.48500000000001,0.012845232578666169,5.034723587978314e-06,68.49933333333334,0.045748102571458026,0.1599999999999966,2.951389689504532e-05
S015,12398.0,12427.984375,N3,0.02223437499999991,114.9919171713697,-237.6,188.39,425.99,22.619999999999997,51.300668454870625,875.0,883.1705729166666,0.4155075021885886,0.16862135013758556,0.28558389261690204,64.90311037780518,0.23675927247719417,65.55913361233506,0.11770833333333333,98,0.29425104166666666,0.007425114323918783,7.716828265198642e-06,37.49233333333334,0.006155395104206097,3.0902786160692575e-06,68.15933333333334,0.21244502556870845,0.6000000000000085,-0.00037784732471987014
S015,12428.0,12457.984375,N3,-0.13655729166666658,108.72268422541364,-246.91,185.48,432.39,25.255000000000003,52.12390336820187,921.875,927.392578125,0.41962362227953753,0.1356408400888169,0.2722220007793884,64.88840946940859,0.21540627590799816,65.55913361233506,0.096875,82,0.294656725,0.001491103014340397,1.8205883844912147e-06,37.49666666666667,0.007888106377465585,3.472223164123085e-07,67.25099999999999,0.40979954449299627,1.1300000000000097,-0.000717187694549615
S015,12458.0,12487.984375,N3,-1.083265625,108.15727493115574,-247.52,183.41,430.93,21.705,65.41766105187652,906.25,920.6461588541666,0.4480753110527292,0.1356408400888169,0.2770050014590591,64.88483952164036,0.22429575187986164,66.24952830020754,0.1,83,0.3005483,0.002107736663659226,-2.0435335404550212e-07,37.49266666666667,0.006289320754704006,-3.7500010172524546e-06,66.72466666666666,0.13063264863306132,0.5,-0.0002016667213722645
S015,12488.0,12517.984375,N3,0.9655208333333335,104.66701471979475,-222.95,167.07,390.02,25.65,45.650945076891944,906.25,899.8942057291666,0.4236075534914362,0.1356408400888169,0.2732186624299299,64.88989606996044,0.21968848338703148,65.55913361233506,0.1,90,0.2999505833333333,0.0016642434196121043,-2.116211945586993e-06,37.49300000000001,0.006403124237432426,-1.076389180878347e-06,66.53933333333335,0.14879366772667435,0.4300000000000068,0.0002662500722249571
S015,12518.0,12547.984375,N3,-0.6568697916666668,108.16074606731044,-218.98,170.27,389.25,21.43,37.610328817535255,890.625,884.5458984375,0.43237950914741047,0.17468970506459605,0.28133486373991323,64.89308591962202,0.2347512766466545,65.68865959965997,0.11041666666666666,97,0.2972610083333333,0.0017652968140222864,-2.5694219209586446e-06,37.49566666666667,0.004955356249105183,-1.0416669492367013e-07,66.94,0.21311968468445006,0.6299999999999955,0.00036555565471887123
S015,12548.0,12577.984375,N3,0.8724062499999998,108.71405912962283,-234.46,186.24,420.70000000000005,25.439999999999998,40.77931626478464,906.25,902.3111979166666,0.431803187870997,0.11987768650679832,0.28685767618958513,64.88841326859303,0.2237710532671608,65.55913361233506,0.10208333333333333,78,0.292778025,0.0011152908922675711,-6.590381562060963e-07,37.49766666666667,0.008825468196582338,-3.8194454805350715e-07,67.29066666666667,0.1351525886626762,0.45000000000000284,-0.0001447917059439305
S015,12578.0,12607.984375,N3,-1.2312291666666664,114.22689035355604,-230.29,183.55,413.84000000000003,19.705,40.20682979401374,875.0,871.8180338541666,0.4353917456983104,0.13188915142607024,0.30819253542045577,64.89731673585187,0.24098164491811036,65.55913361233506,0.11770833333333333,95,0.29984378333333334,0.007207057423321639,1.1729282695660449e-05,37.50366666666666,0.01448754254140074,1.0312502797445515e-05,67.09566666666666,0.15005961778202906,0.5,0.0001978819981233723
S015,12608.0,12637.984375,N2,0.7125104166666668,110.92035915489984,-228.9,191.93,420.83000000000004,22.1,39.29371876109371,875.0,872.998046875,0.42555111326373,0.1682735042192389,0.26954622039745907,64.89163313783625,0.2233988312550364,65.55913361233506,0.10416666666666667,91,0.3047748,0.0028848310799767765,-4.111700334120094e-06,37.51966666666666,0.018345450541089,1.6145837713171548e-05,68.08366666666667,0.4109459277758517,1.3499999999999943,0.0007163543609902236
S015,12638.0,12667.984375,N3,-0.017822916666666386,118.16652228930073,-244.95,199.1,444.04999999999995,19.68,58.369414206365335,890.625,899.7884114583334,0.44111108924573134,0.1821904480893551,0.2919474095287636,64.90105664716505,0.2430968561571898,65.55913361233506,0.12395833333333334,98,0.3037074083333334,0.0015993193161250047,5.727633932192333e-07,37.53499999999999,0.011180339887497465,1.0104169407596693e-05,68.66266666666667,0.10503755941989917,0.29999999999999716,-0.00017506949193508417
S015,12668.0,12697.984375,N2,0.4588385416666671,108.4727656591495,-233.73,184.81,418.53999999999996,22.814999999999998,49.89186289047665,890.625,891.0074869791666,0.4353917456983104,0.1529193630552463,0.2832030950670482,64.89422071174805,0.2316460265091403,65.55913361233506,0.11041666666666666,93,0.304091875,0.005191184032508863,5.5074908603219535e-06,37.543,0.01294861639970206,-5.590279294237569e-06,68.61366666666666,0.25383043333865296,0.7800000000000011,-0.0004039237206824308
S015,12698.0,12727.984375,N2,-1.1744999999999999,120.20080835254049,-246.39,207.0,453.39,19.630000000000003,52.15037227602179,859.375,877.8238932291666,0.4459878528957438,0.14627537173085559,0.2662248129714183,64.88082222076436,0.22067991353554017,65.55913361233506,0.09583333333333334,81,0.3169424416666667,0.0038242128706350233,-2.188449595391057e-06,37.53899999999999,0.01220655561573203,-6.979168559886434e-06,68.49433333333333,0.20956595355374102,0.6299999999999955,0.00031927091994111224
S015,12728.0,12757.984375,N3,0.5294322916666666,116.88458330870938,-243.49,190.71,434.20000000000005,22.189999999999998,51.68005646740269,906.25,911.9303385416666,0.44755799593150186,0.11557806855349137,0.3006052199544926,64.88952460816247,0.2318680515837349,65.55913361233506,0.10833333333333334,88,0.31264102499999996,0.002220994658790295,2.832501419406855e-06,37.54833333333333,0.013682917167848809,-1.3541670340077886e-06,68.355,0.131725725151417,0.39000000000000057,0.00017593754772611447
S015,12758.0,12787.984375,N3,0.6719375000000004,118.23067186602606,-244.13,202.93,447.06,25.015,48.38697129165508,968.75,955.0211588541666,0.45356898746374724,0.12401959270615269,0.2706008617667151,64.8783710941183,0.21429537374807403,65.55913361233506,0.09375,80,0.3237412,0.008638964458197524,1.4052026815328458e-05,37.564,0.01280624847486707,-1.3194448023672819e-06,67.514,0.6744805408608912,2.049999999999997,-0.0012129864401547422
S015,12788.0,12817.984375,N3,0.04255729166666645,112.95265365672326,-242.18,193.4,435.58000000000004,22.025,59.48933919131675,906.25,915.5029296875,0.4795107460271933,0.10152910775842672,0.29854246627015507,64.8786833679682,0.2286433297982967,65.55913361233506,0.10625,87,0.33136195833333326,0.005469468117644579,-8.947664970612238e-06,37.56000000000001,0.011254628677423884,-2.84722299458136e-06,65.95166666666667,0.2635031098277366,0.75,-0.0004314931726055683
S015,12818.0,12847.984375,N2,-0.5585364583333328,114.68655182030264,-255.55,206.21,461.76,22.72,42.28705366936938,921.875,921.7854817708334,0.48101883878273294,0.1356408400888169,0.2892083903616138,64.88092204333702,0.22893916169688203,65.55913361233506,0.109375,89,0.333827425,0.005594551952066845,3.1176225905009273e-06,37.56666666666668,0.011642832797717141,-4.930556893055483e-06,66.00266666666666,0.08477158853190335,0.30000000000001137,0.00014576392842988563
S015,12848.0,12877.984375,N2,0.145421875,108.58029133064169,-240.36,200.48,440.84000000000003,23.259999999999998,52.2880593229647,890.625,900.0569661458334,0.49759730867160273,0.1067949667847486,0.31340840191176894,64.87766889407749,0.24271836309823655,65.55913361233506,0.11979166666666667,100,0.33193823333333333,0.0038365372032892146,2.8288566701542636e-06,37.568,0.010770329614270692,7.638890961071875e-07,66.23533333333333,0.11800376641823199,0.4099999999999966,-6.069446090887323e-05
S015,12878.0,12907.984375,N3,-0.04467187500000011,105.83798917792073,-224.57,172.77,397.34000000000003,23.53,47.09250110505051,890.625,893.994140625,0.49705731281434956,0.09090593428863095,0.3210226714043037,64.88345118347942,0.2420658058806896,65.55913361233506,0.125,99,0.3256303666666666,0.005047917945274298,-8.914178633403501e-06,37.57200000000001,0.011944315244781145,2.9861119211462805e-06,66.39466666666667,0.21100921517528354,0.8100000000000023,0.0003665278772048292
S015,12908.0,12937.984375,N2,-0.5194270833333338,108.6451622795746,-225.68,171.63,397.31,18.725,50.53132921499821,859.375,854.4840494791666,0.5864268789670201,0.23338680562891012,0.34610305746827613,64.89623287155797,0.27348201742185857,65.68865959965997,0.146875,121,0.3173159166666667,0.0018207313667101537,-9.168144848129755e-08,37.57266666666668,0.009977753031398738,1.3888892656494319e-06,67.63433333333334,0.592619514434759,1.8500000000000085,0.001056562786611
S015,12938.0,12967.984375,N2,1.1665416666666668,82.91521089604586,-197.06,190.4,387.46000000000004,17.060000000000002,113.96067238591725,875.0,864.8274739583334,0.49749371855331,0.33767356648100244,0.29322315343153466,64.87292048956006,0.29050901630201864,66.1362230551458,0.15625,103,0.3118512916666667,0.0027017724749869754,-4.543435043249532e-06,37.56733333333334,0.01436043948569364,-1.5416670848708025e-05,70.451,0.8236113565673239,2.3799999999999955,0.0012573961744238773
S015,12968.0,12997.984375,W,-0.9528593750000004,83.70260362525703,-198.83,222.44,421.27,8.575,85.80264830000958,843.75,822.1354166666666,8.526630821122856,1.255156032796985,4.21586784264719,65.02147774714662,0.5175405723077313,68.30080526611674,0.13854166666666667,83,0.284036675,0.023811280389471744,-3.6490883813716316e-05,37.54533333333333,0.01117536974282563,-5.763890452444474e-06,70.76533333333333,0.20428302806536738,0.5799999999999983,-0.00030722230556160765
S015,12998.0,13027.984375,N2,0.38902083333333315,54.960100432605344,-127.83,94.98,222.81,9.055,148.2693296213937,843.75,827.3763020833334,0.7288570771343919,0.4978425677081282,0.8382122800274933,65.17627999817353,0.41636394298662593,66.4981202741852,0.13125,85,0.25068285833333337,0.002887588112063525,-4.785059674766632e-06,37.51233333333333,0.019610088106776353,-1.9131949634317085e-05,71.86033333333333,1.310972878777014,3.450000000000003,0.0020625352817207274
S015,13028.0,13057.984375,N1,0.1213489583333331,72.94739643302833,-151.52,106.04,257.56,21.55,58.16240642926406,968.75,981.6813151041666,0.24148700218070168,0.3877897102489956,0.499995659703384,65.23907893922971,0.41215388827605226,66.12866246946176,0.08020833333333334,69,0.23805632499999999,0.0037665326498927806,-6.617171282869812e-06,37.49000000000001,0.011832159566199681,-6.527779548551194e-06,70.724,1.164842192459275,4.170000000000002,-0.002088820011073135
S015,13058.0,13087.984375,N2,-0.30191666666666644,76.40936732681878,-172.69,119.65,292.34000000000003,18.75,106.02877124402785,953.125,943.5465494791666,0.2530285309999645,0.3054766312211496,0.4706627640891086,65.27842256152748,0.3797559022952781,66.12866246946176,0.06458333333333334,57,0.22961390833333326,0.0015854946441401915,-2.2552846829656844e-06,37.482,0.010770329614270296,-2.7083340680159974e-06,64.60466666666666,2.675762487383529,6.8600000000000065,-0.004663890154050062
S015,13088.0,13117.984375,N2,-0.09318749999999972,83.8236661443623,-171.8,127.47,299.27,20.295,56.287483983257964,953.125,953.7027994791666,0.32425127430572864,0.26339134382131846,0.44134717217728814,65.2901136489166,0.36374401926985594,66.12866246946176,0.059375,56,0.22673201666666667,0.001275224378840396,-1.678237868445594e-06,37.48666666666667,0.014220486005134807,5.138890282901393e-06,61.772333333333336,0.1519140839056368,0.4299999999999997,0.00025961812598147935
S015,13118.0,13147.984375,R,-0.5914999999999999,86.39360526730745,-182.35,131.64,313.99,18.6,88.76436836570656,921.875,936.9791666666666,0.3660254217605657,0.25654623798103576,0.41339864235384227,65.2925616716013,0.34329097493691346,66.12866246946176,0.04791666666666667,41,0.22493866666666668,0.0010335185317910647,-1.3924265929976655e-07,37.49366666666667,0.01015983376941871,-1.1458336441612382e-06,62.598,0.6021705184856961,1.5499999999999972,0.0010311808352812576
S015,13148.0,13177.984375,R,1.0783645833333328,86.89274835388785,-173.17,131.66,304.83,21.86,60.344779886160055,937.5,961.9547526041666,0.3936121892873181,0.2530285309999645,0.3754496725224597,65.3137851154035,0.3386476520357653,66.12866246946176,0.05625,52,0.22387144166666664,0.0009481196372806692,-2.315080923144788e-07,37.498000000000005,0.007483314773547406,1.5277781922143503e-06,63.417666666666655,0.1239807332702225,0.37999999999999545,-0.00021045144597749556
S015,13178.0,13207.984375,R,-0.060401041666666856,85.42638367328571,-171.89,134.77,306.65999999999997,19.09,38.82532895564219,890.625,902.9378255208334,0.391742844985358,0.24258983158592798,0.4119511816243117,65.28746264756224,0.3525682579306951,66.4981202741852,0.053125,46,0.2225802833333333,0.0010349283162239928,-6.008252497898374e-07,37.49666666666667,0.009067647005823392,5.000001356337116e-06,63.349333333333334,0.07491921575196134,0.39000000000000057,0.00011145836356834995
S015,13208.0,13237.984375,R,0.12080729166666666,88.0411656646359,-181.46,249.46,430.92,17.64,91.98753055376692,953.125,913.8264973958334,0.38215256324826896,0.3497751633986546,0.5015589844978909,65.2288492932815,0.41373688221462307,66.12866246946176,0.09895833333333333,77,0.221609025,0.0010388809962527024,8.339846012327505e-10,37.501333333333335,0.012036980056845054,-7.84722435091754e-06,65.998,1.1752089175972071,4.000000000000007,0.0020967366798873366
S015,13238.0,13267.984375,R,0.09809375000000023,93.94895528740795,-196.29,151.7,347.99,19.365000000000002,62.92670289890601,906.25,911.8326822916666,0.20133829584805765,0.3,0.49808225977241943,65.16524777976811,0.3706167851394173,66.4981202741852,0.041666666666666664,38,0.22145957499999996,0.0010058886590348889,-2.843887490203863e-07,37.49300000000001,0.007810249675906495,-5.451390367672872e-06,67.116,0.23868528791416344,0.8299999999999983,-0.00036763898861734743
S015,13268.0,13297.984375,R,-0.8682760416666669,85.36699691196564,-183.3,138.02,321.32000000000005,21.15,81.07754549721298,875.0,905.1025390625,0.24727464136843647,0.28408104465197176,0.4888058986931543,65.2353881323012,0.36992372369186627,66.12866246946176,0.04895833333333333,47,0.22070164999999994,0.0009497750931141566,5.348621242573052e-07,37.49400000000001,0.012806248474865813,-6.111112768856538e-06,66.09633333333333,0.6404294566061826,1.7199999999999989,-0.0011306600289333864
S015,13298.0,13327.984375,R,0.9108333333333334,86.51395029929502,-180.23,133.44,313.66999999999996,21.165,40.25572094299103,859.375,870.2067057291666,0.3001717534965977,0.2699987139887069,0.4679843283671177,65.26087227550309,0.35911907097656054,66.4981202741852,0.04791666666666667,45,0.22080839999999996,0.000896700000000003,9.451825480638457e-08,37.48766666666668,0.009551032521263665,-2.7430562996578867e-06,67.364,0.8757686147988326,2.769999999999996,0.0015020837407996254
S015,13328.0,13357.984375,R,-1.0205416666666665,85.3990416900658,-182.32,136.63,318.95,18.06,44.91684742680628,859.375,870.5240885416666,0.2887484217128583,0.2530285309999645,0.46005358987356626,65.26971486376925,0.3487309405922337,66.4981202741852,0.041666666666666664,37,0.22027465,0.0008590556603038042,-6.11588707570723e-08,37.481666666666676,0.012671051872499433,-1.3715281498286993e-05,68.73933333333335,0.6745859635526227,1.6999999999999886,0.0011438891991886904
S015,13358.0,13387.984375,R,0.8618854166666667,86.94348651079927,-178.85,130.13,308.98,19.33,28.659044167193393,828.125,825.8219401041666,0.3042504878796417,0.2582808246366733,0.45825756949558394,65.27688549424369,0.3401766767413336,66.4981202741852,0.041666666666666664,36,0.2204027583333333,0.0010404386654662675,5.654582697098194e-07,37.47133333333334,0.012578641509408763,-8.750002373590705e-06,69.51566666666666,0.40894729353412806,1.3199999999999932,0.0006908682429655593
S015,13388.0,13417.984375,R,0.1242552083333336,89.46533784253329,-186.24,142.43,328.67,21.5,45.00660741828594,875.0,875.09765625,0.36386089136356614,0.18483053424390924,0.3580894882528978,65.31313211717665,0.2975282242533768,66.12866246946176,0.027083333333333334,24,0.22001845,0.0009668981060587524,-5.092865964861645e-07,37.47466666666667,0.013349989596334193,9.097224690002348e-06,70.41799999999999,0.21562931155109763,0.6500000000000057,-0.0002570834030716698
S015,13418.0,13447.984375,R,-0.4837760416666665,86.36470224167736,-180.82,142.02,322.84000000000003,21.439999999999998,39.63197680671178,828.125,847.5667317708334,0.3919712911114225,0.20684625513624577,0.34546761536197407,65.31352707211005,0.29484131452132134,66.12866246946176,0.030208333333333334,28,0.21934593333333335,0.0008512318204944037,-5.1421454921184395e-08,37.478333333333346,0.012671051872499528,7.951391045841557e-06,70.03999999999999,0.3947404210364077,1.0799999999999983,-0.0006033334969980196
S015,13448.0,13477.984375,R,-0.3540625,81.77256989826678,-190.03,149.84,339.87,18.765,47.82182387871404,796.875,798.1038411458334,0.42735128789309723,0.2263462809256845,0.3318963165365888,65.31091802302996,0.3038425947651671,66.12866246946176,0.036458333333333336,32,0.21921783333333336,0.0008904892600263149,4.864758264094715e-08,37.483,0.01242309676905667,4.618056808283041e-06,70.83833333333334,0.8621797311981356,2.5600000000000023,0.0015112156877212695
S015,13478.0,13507.984375,R,0.4674583333333334,83.80916506600434,-173.34,126.6,299.94,19.494999999999997,30.315409998042906,812.5,816.3981119791666,0.3449017951009953,0.2263462809256845,0.4097286958057327,65.29864488961701,0.3170445494885688,66.12866246946176,0.030208333333333334,28,0.2191004166666667,0.0009746003589791108,3.402492242429515e-07,37.47933333333334,0.01236482466066175,-8.333335593904486e-07,73.78766666666667,0.49164135528067876,1.6599999999999966,0.0008290627248976583
S015,13508.0,13537.984375,R,0.24913541666666633,85.76524332311621,-172.16,127.96,300.12,18.805,36.18766584634706,781.25,792.0735677083334,0.3554572075354344,0.24762544169571912,0.4279919197056567,65.28447299542864,0.3462331235099378,66.12866246946176,0.04479166666666667,39,0.21878015000000003,0.0009205292105631329,-5.976889642168384e-07,37.49033333333334,0.00795124029458461,-2.6736118363745765e-06,74.85766666666667,0.2107238846347405,0.7199999999999989,0.00017704865913863293
S015,13538.0,13567.984375,R,-1.024953125,94.18492942299457,-200.93,144.8,345.73,15.085,50.60349286215688,796.875,802.1728515625,0.35837572423676,0.24206145913796356,0.41268803584615293,65.29464099952278,0.3330141289860201,66.12866246946176,0.04375,36,0.2176062166666667,0.0009553622278428621,-6.611980960282092e-09,37.49300000000001,0.011000000000000095,3.090278616069875e-06,75.53833333333333,0.46139703317448977,1.3699999999999903,0.0007961460493017697
S015,13568.0,13597.984375,R,-0.25288541666666686,100.25767302258485,-201.71,151.38,353.09000000000003,22.325,44.676533667267215,906.25,908.69140625,0.36789566757740194,0.1529193630552463,0.33226390949899387,65.32136890411452,0.27578281173311026,66.12866246946176,0.019791666666666666,18,0.2178836416666667,0.0009378939509688048,3.0577482253005444e-08,37.501,0.011357816691600747,3.020834152786737e-06,73.968,1.201669394356588,4.049999999999997,-0.0021649311428307105
S015,13598.0,13627.984375,R,1.236234375,95.90391079116021,-202.45,143.49,345.94,28.98,47.8886149020715,921.875,922.1516927083334,0.4202966875381669,0.1529193630552463,0.2870750936166354,65.31458547880221,0.27142905562832853,66.12866246946176,0.020833333333333332,20,0.2179690333333334,0.000991726986400763,1.0230167705665907e-07,37.50633333333333,0.016629959577688237,-4.826390198131098e-06,68.13666666666667,1.8890109110913624,6.099999999999994,-0.0033904870308395793
S015,13628.0,13657.984375,R,0.3095052083333331,94.54580619012457,-199.92,141.52,341.44,21.42,52.28050485158356,828.125,839.2985026041666,0.36692551232807763,0.18483053424390922,0.3791208763559307,65.29855631439196,0.3088984561040211,66.12866246946176,0.021875,21,0.21805438333333338,0.0008941709025994639,2.345972858608056e-07,37.51466666666666,0.01839081896551131,2.1597228080844813e-05,66.83200000000001,0.9385002219854108,2.5999999999999943,0.0016663893409259274
S015,13658.0,13687.984375,R,-0.6899114583333336,98.32129265429188,-201.9,140.72,342.62,23.45,28.086618442619258,875.0,889.3310546875,0.43886196735293537,0.1428261375083551,0.2716154572133593,65.30764936315647,0.2651596858660038,66.12866246946176,0.019791666666666666,17,0.2184066166666667,0.0009776725353557148,-4.5330784866206404e-07,37.51366666666666,0.015380362660079566,5.312501441108473e-06,69.15000000000002,0.6441480161163785,1.9000000000000057,0.001150278089810679
S015,13688.0,13717.984375,N2,0.38021354166666654,90.75510053450064,-196.58,128.19,324.77,23.905,72.90968906986285,828.125,857.275390625,0.4061164310337068,0.19741988090108856,0.3392636532092539,65.31092914940476,0.3133027951233584,66.12866246946176,0.035416666666666666,31,0.2178196333333334,0.0009882323945082658,-7.608248591647527e-08,37.52533333333333,0.016878651868229035,6.111112768857056e-06,68.34633333333335,0.7184682007963586,2.25,-0.0009742710976212844
S015,13718.0,13747.984375,N1,-0.7555052083333335,87.17098487046266,-190.64,133.89,324.53,18.884999999999998,77.45148148378135,828.125,851.4811197916666,0.3209128013053806,0.2564256681065468,0.4563391750752211,65.27703945180627,0.3397235258194695,66.12866246946176,0.04375,39,0.21724333333333337,0.0010863485423912307,7.498699950819103e-08,37.527,0.017540429489230135,-1.4236114972897667e-06,69.52133333333333,0.34365421897922677,1.4000000000000057,0.0005420140359196062
S015,13748.0,13777.984375,N2,0.8346562500000002,89.42566815568206,-190.02,141.61,331.63,21.875,52.24324853424723,875.0,868.8395182291666,0.3094837070518504,0.03225804701500421,0.21972747877895374,65.38148620879979,0.19845938759056597,66.06814663663572,0.011458333333333333,11,0.21833185000000005,0.0008894492832646409,3.4521537142343845e-07,37.51466666666667,0.015434449203720758,7.222224181376034e-06,71.23033333333333,0.5387731949118814,1.8500000000000085,4.100695556829406e-05
S015,13778.0,13807.984375,R,-1.3168281250000002,98.33256402060455,-203.0,148.1,351.1,16.634999999999998,38.32802542274251,843.75,847.607421875,0.4182664600433822,0.0,0.1881816313801347,65.35442540846495,0.19925995430871296,66.06814663663572,0.016666666666666666,16,0.2185666916666667,0.0009302853486595069,4.464361020063176e-07,37.52233333333333,0.020442330808615104,1.385417042485043e-05,70.12400000000001,0.32328109543656663,0.9899999999999949,0.0003109028621155771
S015,13808.0,13837.984375,N1,0.9923697916666665,94.86193360923023,-210.18,149.98,360.15999999999997,24.545,83.5852118515883,890.625,910.9944661458334,0.4801213315981238,0.0,0.17860558949042504,65.3197687151701,0.20842263957255913,66.06814663663572,0.026041666666666668,24,0.21848130833333337,0.0010403566038930455,6.721427604553888e-07,37.53366666666666,0.01538036266007816,1.4826392910803553e-05,68.95633333333333,0.8184843037930266,2.5600000000000023,-0.001429757332290943
S015,13838.0,13867.984375,N1,0.2111406250000002,92.85755631443548,-196.55,148.6,345.15,23.725,60.77060668383436,859.375,871.1669921875,0.42809331796804406,0.04559597630883185,0.14420218733893508,65.3475469715921,0.1941343063376878,66.12866246946176,0.009375,9,0.21832117500000006,0.0008888731598912094,9.92537161604046e-08,37.53299999999999,0.01004987562111967,3.6458343223281423e-06,68.52033333333333,0.35261389019089356,1.1899999999999977,-0.0002470486781273536
S015,13868.0,13897.984375,N2,-1.296151041666667,99.5194196419101,-207.08,144.68,351.76,21.71,40.628547187552506,906.25,899.3489583333334,0.43361244016274364,0.032258047015004204,0.16137094409224426,65.34807182114972,0.1918356706269754,66.12866246946176,0.014583333333333334,14,0.21829990833333338,0.0010560526343877015,1.5316779328553274e-07,37.53499999999999,0.011180339887497464,2.881945226221621e-06,68.33033333333333,0.4393440818108536,1.1800000000000068,0.0007432293682805353
S015,13898.0,13927.984375,R,1.2104218750000002,100.91004274888817,-203.06,153.68,356.74,24.535,44.02805855090242,859.375,874.0397135416666,0.43480194844894615,0.05589199343873465,0.1766661753137821,65.34274568443901,0.21056214932316367,66.12866246946176,0.014583333333333334,14,0.2182251666666667,0.0009379658161266885,1.0727607076716163e-07,37.54333333333333,0.0163978318349976,-1.131944751504045e-05,67.48533333333333,0.37435930453093996,1.3100000000000023,-0.0004482640104882842
S015,13928.0,13957.984375,R,0.19449999999999995,103.33718412092361,-217.19,166.03,383.22,25.875,39.04896734855609,937.5,935.6363932291666,0.47761978573151903,0.0,0.17598926734952397,65.32077814595506,0.21434179928454836,66.06814663663572,0.023958333333333335,22,0.2179583666666667,0.0009448393067371507,-4.888338999657892e-07,37.538666666666664,0.014996295838934724,-2.013889435191382e-06,67.22933333333333,0.28862817295305987,0.9499999999999886,-0.0005154862509457039
S015,13958.0,13987.984375,R,-0.3727760416666666,90.45012566816777,-196.12,143.26,339.38,25.22,74.46206303259932,937.5,932.0393880208334,0.39523529384405937,0.0,0.1927392993138659,65.35562191681927,0.19087657208811623,66.06814663663572,0.009375,9,0.21847064166666672,0.0009593524881904488,-3.099056830256287e-07,37.53333333333333,0.012472191289245255,-2.9861119211456626e-06,65.54,0.6590902821313618,2.009999999999991,-0.0011727086514509114
S015,13988.0,14017.984375,R,0.3866302083333333,90.80944620151449,-192.66,132.17,324.83,26.875,84.98001137865633,953.125,952.1809895833334,0.39361218928731806,0.0,0.1825622991078814,65.3667982779109,0.18933980450784857,66.06814663663572,0.015625,15,0.21849199166666672,0.0009711677635354966,5.211609486656181e-07,37.53733333333333,0.013888444437331617,4.6527790399241905e-06,64.13666666666667,0.23261317436656306,0.8000000000000043,-0.00038562510460750566
S015,14018.0,14047.984375,N1,-1.4082187499999996,95.65302646563507,-213.86,150.34,364.20000000000005,22.560000000000002,80.10256469275556,875.0,899.5198567708334,0.9264481672480238,0.3687853090439839,0.3421347784093605,65.3093976495013,0.3404585035604459,66.40030120413611,0.08125,67,0.2186094166666667,0.0009779999879288713,7.521134852738345e-07,37.526999999999994,0.016763054614239548,-5.208334746185743e-07,64.238,0.28119269786630907,1.0999999999999943,0.0004920140223562351
S015,14048.0,14077.984375,N2,1.9208333333333334,99.3255325187783,-204.23,141.69,345.91999999999996,29.045,57.5551252294816,906.25,896.0530598958334,0.3465542185414699,0.49914858064063,0.38436088501635485,65.22179650146856,0.44903910856784013,66.40030120413611,0.16770833333333332,137,0.21897230000000004,0.0009047967782878028,-8.72903882623659e-08,37.53399999999999,0.017048949136724893,1.2013892147864131e-05,65.22566666666667,0.4666167830481689,1.5999999999999943,0.0006257293364066102
S015,14078.0,14107.984375,W,-2.060927083333332,141.89381177954175,-555.8,561.36,1117.1599999999999,16.25,79.96649634958108,843.75,883.0647786458334,37.52713827046812,23.582538243921956,34.124838153360606,64.59724568537766,2.868473728243607,82.30431337420902,0.07291666666666667,22,0.2575029416666667,0.0590582801059394,2.7856878433398015e-05,37.544999999999995,0.01522060007577396,-4.548612345000321e-06,66.62933333333334,0.11395710694038405,0.3999999999999915,-0.00010409725046041058
S015,14108.0,14137.984375,N1,1.9928958333333335,140.6659263680766,-300.0,232.72,532.72,24.83,0.0,812.5,812.5,0.4162901945057878,1.0636508269151215,1.8086585249079559,62.727717113926914,0.2779490513749724,63.88270501473775,0.09791666666666667,46,0.24427873333333333,0.0010712557719279147,-9.97708169951211e-07,37.510999999999996,0.01972308292331581,-1.6423615566301337e-05,68.40966666666667,1.3947580037013192,3.549999999999997,0.002271979782980626
S015,14138.0,14167.984375,N1,-0.769937499999999,149.40873404787203,-338.29,256.31,594.6,35.03,0.0,812.5,812.5,0.731720972500599,1.445941023246914,2.125514388314169,62.966348283520844,0.3452421927919922,63.72597586541927,0.296875,117,0.24297641666666664,0.0009975964663741636,-3.6496841497623986e-07,37.448,0.023860706890898656,-3.770834356237774e-05,68.86,0.4281588490268537,1.3199999999999932,-0.0006536112884145211
S015,14168.0,14197.984375,N2,-0.3628541666666672,147.62223596579628,-317.97,268.3,586.27,34.120000000000005,0.0,812.5,812.5,2.0791363975752586,4.144163058640094,3.3304127830579136,63.230049111755775,0.32508612954103805,66.03786792439622,0.159375,82,0.24216527499999996,0.0009375774364685848,1.3089087752031183e-07,37.398333333333326,0.020669354663902673,-3.0312508222792843e-05,65.27633333333333,1.6668342915705672,4.429999999999993,-0.0029110077341058293
S015,14198.0,14227.984375,N1,-1.039494791666667,159.67751133895158,-562.03,538.3,1100.33,29.689999999999998,55.72091395037274,812.5,842.3828125,2.758665128269569,7.631686503577626,2.5264741897746,63.4512383963736,0.7091163279491884,68.70953354520753,0.06979166666666667,46,0.2375866416666667,0.0015598532665811505,-1.7687606794598187e-06,37.35200000000001,0.018330302779821832,-7.152779718094007e-06,63.467000000000006,0.8644271706357542,2.5600000000000023,0.0011585072587096527
S015,14228.0,14257.984375,N2,0.1152968749999997,121.67458859946626,-389.09,341.92,731.01,21.265,35.054588738469945,937.5,952.6041666666666,0.39261852421346033,0.5358005676218428,0.7512135725592438,63.4949623173384,0.3131990630750188,64.56779382943171,0.16145833333333334,108,0.23131072499999997,0.001316584140636295,-1.8022415913198825e-06,37.335666666666675,0.009551032521264423,-8.576391215386143e-06,64.86733333333333,0.18070110372902762,0.6200000000000045,-0.00020347227741760848
S015,14258.0,14287.984375,N2,1.434734375,111.51723378274069,-219.15,190.04,409.19,22.235,41.65483863158567,984.375,1000.6591796875,0.07902948640996107,0.4596087840489997,0.49851232675888324,63.58327693557442,0.38759188250701654,64.69157595854347,0.3645833333333333,148,0.22788489166666664,0.0012392346885331583,-1.2005760635243177e-06,37.30733333333333,0.012364824660660571,-1.1250003051757834e-05,63.208000000000006,1.1819684146936142,3.3300000000000054,-0.0019998616536083054
S015,14288.0,14317.984375,N2,-1.1809531249999996,114.04740681500378,-210.57,191.34,401.90999999999997,17.325,44.70280548933231,968.75,978.9388020833334,0.19249988726547926,0.34437443284889774,0.41620286686769575,63.805068392499166,0.3255084666171696,64.01562309311689,0.0,0,0.2254297,0.0011276090678954305,-1.3946592324921978e-06,37.306666666666665,0.011642832797715717,6.736112938398782e-06,60.641666666666666,0.28418401706562507,0.8399999999999963,-0.0003782292692679224
S015,14318.0,14347.984375,N2,1.5963697916666664,112.63260259022994,-226.75,207.73,434.48,18.61,65.3328016609824,1015.625,980.3385416666666,0.4878693401470885,0.46255630287926386,0.5844891822494808,63.74551778902273,0.33009363730312224,64.52131430775415,0.0020833333333333333,2,0.22335929166666665,0.00124040976022599,-1.398138183088704e-06,37.324333333333335,0.014533486237727825,1.906250517103538e-05,60.93999999999999,0.19237116901102067,0.6600000000000037,0.0003441667600278755
S015,14348.0,14377.984375,N2,-1.4297343750000002,106.35530308917303,-237.49,235.14,472.63,16.200000000000003,53.42328906951522,1062.5,1081.6162109375,0.22724334958487907,0.494022428359505,0.1435989544607558,63.61231964038039,0.3008293592833105,64.38167441127949,0.020833333333333332,19,0.2208084,0.000997755651449796,-8.578921598014785e-07,37.331,0.008306623862918732,-3.819445480529889e-07,61.04,0.40758639166030364,1.4399999999999977,-0.0006984029672317075
S015,14378.0,14407.984375,N2,0.18495312500000008,106.82661201392096,-217.59,190.53,408.12,19.015,44.27826388961874,1015.625,1008.9111328125,0.2514519468948734,0.5019482442748013,0.12801909579781012,63.57104662078688,0.29074307857653053,64.38167441127949,0.015625,14,0.2191004166666667,0.000988531845578184,-5.698612656958698e-07,37.32399999999999,0.012543258481483913,-5.555557062596938e-06,59.327999999999996,0.3290126643965752,1.0600000000000023,-0.0005711807104982396
S015,14408.0,14437.984375,N2,1.1556875,109.41791153667748,-220.98,193.49,414.47,22.35,38.63686069269658,1000.0,992.2932942708334,0.08507936450096985,0.4182664600433822,0.16862135013758556,63.448753912992835,0.2529035820409844,64.38167441127949,0.240625,158,0.21818245000000006,0.000944769362066734,-3.6241893511798104e-07,37.32666666666667,0.010749676997731022,9.236113616568352e-06,59.10133333333332,0.3116914428654654,1.1799999999999997,0.0005126390279511255
S015,14438.0,14467.984375,N2,-0.43419270833333395,110.22305057990341,-226.35,196.78,423.13,18.755000000000003,75.24988041287732,1000.0,1007.3160807291666,0.19741988090108853,0.4671953385630041,0.2221950938302244,63.49197119628382,0.3109291617027588,64.38167441127949,0.3375,193,0.21752082500000008,0.0009544041567255406,-6.146896198702277e-07,37.33533333333333,0.008055363982397446,-1.1805558758014745e-06,60.533666666666676,0.17329134106725783,0.7099999999999937,0.0002675347947956788
S015,14468.0,14497.984375,N2,0.6378229166666673,108.88015439985061,-216.38,191.55,407.93,21.805,66.26173813114899,1031.25,1038.4684244791667,0.2716154572133593,0.4905254676110101,0.27161545721335933,63.52485884010957,0.35298868369722286,64.38167441127949,0.03958333333333333,37,0.21631502500000005,0.0010559866118351137,-1.0579992019312088e-06,37.33666666666667,0.01011050059206922,-9.027780226721701e-06,60.12166666666668,0.21371450322542243,0.7100000000000009,-0.00032218758739897786
S015,14498.0,14527.984375,N2,-0.08894270833333286,112.08752221793044,-221.35,194.85,416.2,17.69,32.774205542986564,1015.625,991.6178385416666,0.3421680772011842,0.49999023427963085,0.28772447456531897,63.54736997886012,0.3770748420851378,64.38167441127949,0.052083333333333336,44,0.2153544583333334,0.0009542222303690906,-4.628297696478342e-07,37.33666666666667,0.007888106377467187,1.6666671187805764e-06,60.17533333333333,0.17995801979597506,0.44999999999999574,0.000311666751211682
S015,14528.0,14557.984375,N2,0.14006770833333337,107.3287229052138,-221.35,202.57,423.91999999999996,17.12,57.03650266011459,1031.25,1011.0432942708334,0.7147260547463856,1.2527881231865274,1.6859016993675981,63.535199861672794,0.4248080397386756,66.2268827591938,0.07708333333333334,61,0.21411623333333332,0.0012336537043361206,-1.4723762674631852e-06,37.33666666666667,0.004714045207912728,2.916667457864843e-06,61.362,0.43261530254950537,1.4099999999999966,0.0006540973996574975
S015,14558.0,14587.984375,N2,-0.8478489583333334,97.73015551447484,-215.93,187.91,403.84000000000003,15.870000000000001,104.49015646096512,859.375,902.8889973958334,0.31080093664952524,0.710742685456949,0.541021250096108,63.620606592494404,0.25141294661038877,64.38167441127949,0.1,27,0.21423363333333334,0.0011543873261990092,8.778140402056342e-07,37.33266666666667,0.008919392106840719,-5.069445819620599e-06,63.38966666666667,1.073857480715616,3.0600000000000023,0.0018476741123247926
S015,14588.0,14617.984375,N2,0.7935885416666665,106.80175245854404,-224.12,206.5,430.62,22.200000000000003,83.51251055345585,1015.625,1012.8499348958334,0.19741988090108856,0.1874276480775686,0.45547880027505117,63.29759865101202,0.31199094335513017,64.28841264178172,0.32708333333333334,192,0.21399876666666665,0.0009439512940589476,-2.462652577759496e-07,37.327,0.007810249675905495,3.298612005916352e-06,63.84166666666666,0.2600907961120928,0.8700000000000045,-0.0003889931610767032
S015,14618.0,14647.984375,N2,-0.5619427083333337,107.0799457474553,-217.38,182.69,400.07,20.025,52.279759985427866,1046.875,1049.3570963541667,0.08507936450096985,0.34437443284889774,0.4083426338226542,63.2814595203283,0.323724641816594,64.28841264178172,0.3072916666666667,184,0.21288874999999996,0.0010480086294969162,-3.0511466610098427e-07,37.32533333333333,0.010561986345169121,4.861112429769313e-07,60.907666666666664,1.5298664066585097,4.599999999999994,-0.0026891326739183668
S015,14648.0,14677.984375,N2,0.2946458333333333,101.37227726758552,-213.17,187.62,400.78999999999996,19.6,60.68406835689043,1046.875,1031.640625,0.07880950133074055,0.3781752147557473,0.41480835601783894,63.30504940568876,0.33524082384690196,64.19501538281614,0.22708333333333333,153,0.21257926666666663,0.000998236426014513,-4.0380696717854043e-07,37.330000000000005,0.008944271909999498,3.4722231641218543e-06,59.24366666666667,0.1262928695092841,0.47000000000000597,-0.00012663197879556783
S015,14678.0,14707.984375,N2,-0.08903645833333354,102.02172826912658,-211.01,176.68,387.69,20.055,36.5268961764187,1015.625,1024.2594401041667,0.09090593428863095,0.43361244016274364,0.42029668753816696,63.352358584358896,0.37985102186135283,64.28841264178172,0.10520833333333333,87,0.21237648333333325,0.0009916340889606886,-3.37917626388246e-07,37.32899999999999,0.0069999999999997235,-4.826390198131566e-06,58.99833333333334,0.03266836730267076,0.11999999999999744,-6.2152794637814685e-06
S015,14708.0,14737.984375,N2,0.06466666666666677,107.73315064070215,-247.17,219.32,466.49,19.6,45.83258700485626,1015.625,992.2119140625,0.04559597630883185,0.4687627313085895,0.43597825625890513,63.40340434443149,0.39789136271993136,64.19501538281614,0.13333333333333333,106,0.21225909999999992,0.0009198064415951898,-5.4217028596199344e-08,37.33266666666667,0.007717224601861316,5.902779379010998e-06,59.217999999999996,0.19401718136976065,0.5399999999999991,0.00033881953635512554
S015,14738.0,14767.984375,N2,-0.8837239583333331,105.27203976601155,-206.0,186.46,392.46000000000004,17.16,53.2774234564814,1000.0,1006.6162109375,0.03225804701500421,0.47761978573151903,0.4268291926780808,63.40736743520962,0.3825963098608823,64.8074069840786,0.11354166666666667,96,0.2116721916666666,0.0010154456188937744,1.6643884723276063e-08,37.34366666666668,0.01048279012900915,-4.1319455653057156e-06,59.879000000000005,0.30586870821754053,0.9000000000000057,0.0005313543108057494
S015,14768.0,14797.984375,N2,1.1090260416666666,104.65292163533621,-217.16,183.49,400.65,21.275,56.09801150787221,1015.625,1018.8557942708334,0.3723503031607318,0.41689446897732874,0.47220945652679736,63.568117437826935,0.3545354857310604,64.8074069840786,0.12604166666666666,101,0.2114908166666666,0.0010265775988150606,-2.875838453732228e-07,37.35266666666667,0.01651934892448317,1.1527780904887719e-05,60.41466666666667,0.14755187411739448,0.45999999999999375,0.00019013894046737646
S015,14798.0,14827.984375,N2,-0.8171458333333333,102.53535875278374,-201.43,173.69,375.12,16.560000000000002,42.61005538125527,984.375,992.6106770833334,0.3013838885273878,0.3560473960919935,0.12047360245667467,63.682817206423884,0.28291810334552203,64.79197481170026,0.140625,108,0.2119603166666666,0.000949516727808886,2.436840938813195e-07,37.36233333333334,0.014761059883654377,4.965279124695746e-06,60.826666666666675,0.08331999893316343,0.23000000000000398,-6.229168356436836e-05
S015,14828.0,14857.984375,N2,0.3804791666666663,102.99184280947318,-205.7,178.33,384.03,17.72,48.08929899882168,968.75,974.2757161458334,0.28855482821967976,0.32714138285304106,0.06451609403000842,63.67799952320677,0.2559330429554359,64.27285585688566,0.11666666666666667,95,0.21236584999999994,0.001075128726013777,-3.693217147682612e-07,37.377333333333326,0.009637888196535481,-3.5416676274060514e-06,60.72333333333334,0.04887626099538333,0.21999999999999886,-5.902779379007128e-06
S015,14858.0,14887.984375,N2,-0.7046718750000004,104.95993403038688,-209.6,189.01,398.61,17.009999999999998,35.82219963690922,1046.875,1024.462890625,0.2986060642338368,0.35501736068661327,0.1019769854210035,63.68601890105385,0.27453876704709657,64.79197481170026,0.13854166666666667,108,0.21246182499999994,0.0009231238781306684,-1.5285138694970392e-07,37.38366666666666,0.013780017739063047,-6.840279633322601e-06,61.023,0.08299196748280364,0.3200000000000003,0.00013996531574579998
S015,14888.0,14917.984375,N2,1.1787187500000003,103.32627690569197,-221.83,198.34,420.17,16.314999999999998,44.08438822031584,984.375,983.642578125,0.2986060642338368,0.33071891388307384,0.10204080746882048,63.67523148437714,0.2686765297737536,64.27285585688566,0.12291666666666666,99,0.2115655083333333,0.0011804466244874831,-9.821163688466727e-07,37.388,0.011944315244779876,9.930558249392352e-06,61.467999999999996,0.17061457538362035,0.4799999999999969,0.00027506951906182577
S015,14918.0,14947.984375,W,-1.9250156249999995,99.07738759371681,-195.53,185.3,380.83000000000004,13.935,53.679766616956684,1000.0,996.2972005208334,2.108510368061353,1.215584832241255,9.723494900579587,63.64874399957429,0.5644796512314586,69.34695379034324,0.019791666666666666,11,0.21713704999999997,0.018519764552071574,1.707935749765557e-05,37.39133333333333,0.011469767022722984,-7.500002034506241e-06,61.570333333333345,0.03859907886062688,0.13000000000000256,-2.7604174154778013e-05
S015,14948.0,14977.984375,N1,1.9289322916666667,103.09604452562061,-552.67,259.41,812.0799999999999,5.29,110.87259862660595,703.125,789.1031901041666,3.2582986997306844,3.825024963607718,30.331596916159473,63.09325327982755,1.0957944914677624,79.01898506055365,0.03333333333333333,22,0.2101137416666667,0.005954544605447496,-8.859986127383391e-06,37.376999999999995,0.0171561456432765,-2.170139477576893e-05,61.68933333333334,0.29261958619036804,1.5399999999999991,0.0002166667254412783
S015,14978.0,15007.984375,N2,-0.913447916666667,77.7837585927821,-183.04,138.0,321.03999999999996,20.564999999999998,98.08949274219712,953.125,954.2561848958334,0.04559597630883185,0.0,0.47426844250440653,63.13494700679941,0.22667844030322545,64.16385275215322,0.0020833333333333333,2,0.2050121,0.0010420650843397483,-6.964311785023837e-07,37.34800000000002,0.016613247725834158,-7.777779887635237e-06,64.91633333333333,0.5106889681814384,2.1199999999999974,0.0005699654323907952
S015,15008.0,15037.984375,N2,0.405427083333333,81.61060190666161,-173.27,127.62,300.89,25.23,58.1058648217929,968.75,982.4625651041666,0.35501736068661327,0.0,0.21182234678433295,62.975859018202314,0.3236086929814154,64.16385275215322,0.14791666666666667,112,0.20504408333333338,0.0010839968448857356,3.026441793197111e-07,37.333333333333336,0.011055415967851631,3.6111120906878586e-06,64.35966666666667,0.515645119136106,2.1199999999999974,-0.0007989932722963525
S015,15038.0,15067.984375,N2,-0.47116145833333306,87.28318746122072,-187.86,130.88,318.74,23.18,48.10281544964674,984.375,979.4352213541666,0.4827481640882289,0.0,0.032258047015004204,63.1500453203693,0.42439294131254646,64.16385275215322,0.3697916666666667,221,0.20509748333333336,0.0009044082594283552,2.7168844175576295e-08,37.325,0.0102469507659586,-1.8402782769857077e-06,61.19899999999999,0.3467789882139151,1.6299999999999955,-0.00025065979021804104
S015,15068.0,15097.984375,N2,0.1517968750000002,91.0132814560966,-191.63,133.3,324.93,27.225,63.623477299690705,984.375,995.9554036458334,0.4948070173057371,0.0,0.04564354645876384,63.326861110223426,0.43459206136781314,64.16385275215322,0.0010416666666666667,1,0.20549230833333337,0.0010558585984546238,5.555381281299192e-07,37.32266666666666,0.010624918300338142,4.375001186794995e-06,61.108,0.0812567945876931,0.259999999999998,-9.284724740864984e-05
S015,15098.0,15127.984375,N2,-0.18458333333333315,93.00301907528623,-189.68,131.64,321.32,26.46,37.4030343067507,1015.625,1012.060546875,0.4795107460271934,0.0,0.07880950133074055,63.38525566447166,0.4220359576645799,63.702433234531945,0.0,0,0.20555629166666672,0.0010322907568109038,3.4762183909012673e-07,37.32933333333334,0.013148721948877002,2.777778531303058e-07,60.00666666666667,0.43815015183787864,1.3000000000000043,-0.0007354863106245436
S015,15128.0,15157.984375,N2,0.36549999999999994,94.5610676596743,-194.39,136.07,330.46,27.76,44.40352357432879,1015.625,1021.6145833333334,0.45061686115319244,0.0,0.10152910775842669,63.449180863750286,0.3971117211846266,63.702433234531945,0.0,0,0.2061752666666667,0.0010118425333134739,1.8421359163780208e-07,37.32033333333334,0.012512216252748174,2.673611836375835e-06,59.20333333333333,0.28724360547954536,0.7999999999999972,-0.0005138890282902086
S015,15158.0,15187.984375,N2,-0.0503333333333335,94.53443297888283,-200.7,139.67,340.37,26.049999999999997,48.650259269954844,1000.0,1000.2115885416666,0.4324096224614136,0.0,0.20453835214941968,63.46429256731893,0.3942637819356843,63.702433234531945,0.0,0,0.20689027500000004,0.001018398791915528,8.561271853643651e-07,37.31466666666667,0.0123107902084119,1.5972226554964514e-06,59.10233333333334,0.18577196296056644,0.5499999999999972,0.00033315981259760447
S015,15188.0,15217.984375,N2,-0.6103489583333335,94.32312744592554,-199.97,141.16,341.13,24.515,40.86746502045127,1031.25,1036.8815104166667,0.3726779962499649,0.0,0.24578919095210203,63.527144834989926,0.3473026262655068,63.702433234531945,0.0,0,0.20724250000000005,0.0010099014803435062,6.540678857606042e-07,37.315333333333335,0.013597385369579818,-5.416668136031552e-06,59.14066666666667,0.07941172597433145,0.37000000000000455,-9.180558045941345e-05
S015,15218.0,15247.984375,N2,1.1598281249999993,95.09195546078477,-280.85,133.14,413.99,31.515,45.99225783500652,1015.625,1018.9453125,0.33767356648100244,0.0,0.2870750936166354,63.546523081309,0.3240822066413212,63.702433234531945,0.0,0,0.20822457500000008,0.0009595037750707378,3.0496036918412703e-07,37.31266666666667,0.00853749898324273,4.861112429771802e-06,58.53000000000001,0.2101110817321803,0.75,-0.00036847232217673766
S015,15248.0,15277.984375,N2,-0.38924999999999926,90.70484220100012,-202.56,139.65,342.21000000000004,23.54,67.32239845214549,1062.5,1048.1852213541667,0.18998355191963326,0.0,0.5018358224642132,63.43793403912082,0.27835800956507994,63.702433234531945,0.0,0,0.20843807500000006,0.0009571255243566506,-3.057943537854997e-09,37.30800000000001,0.01077032961426924,-3.263889774276041e-06,58.36733333333334,0.15379495729343282,0.480000000000004,6.354168390345067e-05
S015,15278.0,15307.984375,N2,0.37965625,88.2343577383937,-194.32,132.68,327.0,26.689999999999998,57.81293760025238,1015.625,1021.8912760416666,0.17950549357115012,0.0,0.4667968568398415,63.36809741136393,0.26782543548540916,63.702433234531945,0.31354166666666666,197,0.20851280000000008,0.0008844158580667761,8.617840879405492e-08,37.300666666666665,0.014360439485692277,-1.2638892317409092e-05,58.043,0.07568134952989883,0.240000000000002,2.5034729013328184e-05
S015,15308.0,15337.984375,N2,-1.0777812500000006,91.8059945248792,-188.4,135.34,323.74,25.189999999999998,39.41437651289955,1015.625,1019.8567708333334,0.1356408400888169,0.0,0.44385146531682074,63.35802726405232,0.23928269390915533,63.702433234531945,0.26875,190,0.20887575000000005,0.0010272434412056304,4.5980351014634723e-07,37.29066666666667,0.010934146311237736,-7.152779718092401e-06,57.94966666666666,0.19974122147307424,0.7700000000000031,0.00018746532863100218
S015,15338.0,15367.984375,N2,-0.34677604166666687,91.30118278699356,-205.13,139.41,344.53999999999996,26.39,65.02194056718635,1046.875,1035.8968098958333,0.11110243021644486,0.03225804701500421,0.4202966875381669,63.345459807370574,0.2179758231274101,63.702433234531945,0.22916666666666666,164,0.20963367500000002,0.001021625943961381,6.235424868550537e-07,37.288,0.011944315244778647,7.430557571224091e-06,58.605000000000004,0.2424011826153771,0.6799999999999997,-0.0003103820286409585
S015,15368.0,15397.984375,N2,1.4770937499999997,91.79838545234811,-194.63,129.46,324.09000000000003,30.09,43.07477643365862,1015.625,1017.5537109375,0.12801909579781012,0.0,0.35501736068661327,63.3051624330469,0.19406010808304308,63.702433234531945,0.14479166666666668,123,0.20990055,0.0008933897231891502,2.7410293893851083e-07,37.29333333333334,0.011642832797715717,2.9861119211459082e-06,58.30233333333334,0.07666739130092486,0.20000000000000284,-0.00013128475783549467
S015,15398.0,15427.984375,N2,-1.4898489583333336,93.06259689511465,-198.09,131.41,329.5,24.97,43.911300495406834,1031.25,1019.53125,0.09636964965693294,0.03225804701500421,0.3508360550171547,63.30987000601978,0.18241844080519243,63.85138996137829,0.14375,116,0.21028483333333328,0.0009352250115465342,5.009220108837881e-07,37.28866666666667,0.010241527663824255,-7.638890961069532e-06,58.44500000000001,0.1770263633850439,0.519999999999996,0.0003092709172284404
S015,15428.0,15457.984375,N2,1.2986250000000004,92.22631657416738,-192.74,129.8,322.54,29.880000000000003,39.053709100606625,1015.625,1013.5335286458334,0.10152910775842672,0.06441510347391793,0.2986060642338367,63.2893091495455,0.16397877888442886,63.702433234531945,0.09895833333333333,89,0.21080784999999996,0.0009130987501360414,-5.587067487811352e-08,37.291333333333334,0.013597385369580654,2.3611117516044775e-06,58.849000000000004,0.10814650556844993,0.3100000000000023,0.00018670143953489668
S015,15458.0,15487.984375,N2,0.15355729166666668,92.05691434289582,-196.15,131.78,327.93,27.545,53.826459475315296,1015.625,1006.7545572916666,0.07198059875565237,0.07880950133074056,0.2914805954090255,63.291890793692026,0.14468849078229426,63.85138996137829,0.09270833333333334,77,0.21059437499999997,0.0010673521370077428,4.755919258875645e-07,37.29266666666667,0.014360439485692014,5.555557062593295e-07,59.12533333333333,0.23809988566892595,0.6400000000000006,0.00036236120940788
S015,15488.0,15517.984375,N2,-0.16478124999999935,88.93666203607383,-204.47,138.89,343.36,25.615000000000002,65.1488692354246,1062.5,1034.1878255208333,0.09090593428863095,0.07198059875565237,0.2716154572133593,63.28288795407146,0.14807270434751507,63.702433234531945,0.08020833333333334,71,0.2104876333333333,0.0010392242453976016,-2.9656388253143483e-07,37.294000000000004,0.013063945294843702,-4.722223503208068e-06,59.306666666666665,0.06769211344183516,0.25,-0.00010854169611048715
S015,15518.0,15547.984375,N2,0.034151041666666986,90.98894725521667,-190.73,127.72,318.45,27.020000000000003,41.29262163999916,1031.25,1034.6272786458333,0.07880950133074055,0.045595976308831845,0.2242827108249764,63.27210025361728,0.12364396280957543,63.702433234531945,0.05520833333333333,47,0.21076509999999996,0.0010430381536645711,6.950474975714794e-07,37.29200000000001,0.011944315244779083,2.0833338984706897e-07,58.375,0.4072898230989826,1.2800000000000011,-0.0007298960313303048
S015,15548.0,15577.984375,N2,-0.35765104166666656,91.7663185212916,-195.51,142.51,338.02,26.595,41.254785401428244,1015.625,1021.4436848958334,0.07880950133074056,0.07880950133074056,0.1998263134713633,63.2675807983994,0.11497790225462776,63.702433234531945,0.04791666666666667,42,0.21152281666666664,0.0009001014107989316,2.2280084168859696e-07,37.291333333333334,0.012578641509408761,-2.500000678169052e-06,57.87866666666665,0.04566058353644784,0.13000000000000256,1.8055560453442097e-06
S015,15578.0,15607.984375,N2,-1.291848958333333,88.04062886240422,-197.24,138.5,335.74,26.759999999999998,63.52145128793008,1015.625,1026.0498046875,0.08507936450096985,0.07198059875565237,0.2021987428181051,63.266971808204104,0.11931702830415489,63.702433234531945,0.04791666666666667,43,0.2117041666666666,0.0009552606043495284,-3.1596883571203395e-07,37.284,0.014742229591663145,1.87500050862619e-06,58.35033333333333,0.1698721741650335,0.6299999999999955,0.0002703820177902608
S015,15608.0,15637.984375,N2,0.6690416666666669,90.27092497505734,-199.3,140.15,339.45000000000005,28.825,48.95967522263414,1031.25,1030.9244791666667,0.08507936450096985,0.032258047015004204,0.15925921720229846,63.25886384629849,0.10457792376786763,63.702433234531945,0.027083333333333334,26,0.21188562499999994,0.0008384727391960958,-4.998764376834975e-08,37.27733333333333,0.013148721948876304,-2.9861119211447482e-06,58.39533333333334,0.08065289138579584,0.2700000000000031,-0.00011638892046140482
S015,15638.0,15667.984375,N2,-0.26884895833333383,92.0506547905718,-193.31,125.55,318.86,26.78,41.563029146451164,1062.5,1041.0319010416667,0.032258047015004204,0.10642856726723117,0.1561249499599599,63.26548014734679,0.07813487701231057,63.85138996137829,0.035416666666666666,33,0.21204569999999995,0.0008230471796926369,3.0830737530039594e-08,37.28,0.011254628677421148,5.0694458196190926e-06,58.00633333333333,0.1533728210023611,0.509999999999998,-0.00026947923976758923
S015,15668.0,15697.984375,N2,1.384541666666667,91.38321685808394,-195.98,131.12,327.1,31.119999999999997,45.48272499636565,1015.625,1016.5852864583334,0.03225804701500421,0.06441510347391793,0.10642856726723117,63.25830754450377,0.05650904039776567,63.702433234531945,0.015625,14,0.21267531666666664,0.0011194485843733794,8.353964939769158e-07,37.28066666666667,0.009977753031395191,-3.61111209068724e-06,57.999333333333325,0.18894326014853113,0.5700000000000003,0.0003302778673713831
S015,15698.0,15727.984375,N2,-0.37326562500000005,90.10062019193381,-198.61,125.78,324.39,25.884999999999998,51.32347474240943,1031.25,1025.2766927083333,0.03225804701500421,0.11110243021644486,0.14282613750835507,63.263765680897706,0.07298542643778251,63.85138996137829,0.03229166666666667,29,0.21324089166666663,0.0009498209725682844,1.3587047956556012e-07,37.288,0.011944315244778647,-6.944446328165743e-08,58.295333333333325,0.06581455428364967,0.25,7.791668780292013e-05
S015,15728.0,15757.984375,N2,0.3458593750000001,89.35475629589605,-187.27,121.41,308.68,29.525,58.13141344207389,1015.625,1011.1653645833334,0.0,0.09090593428863095,0.09636964965693294,63.25891763862436,0.04524956436672263,63.702433234531945,0.017708333333333333,17,0.21295272499999995,0.0009313863319670337,-1.6951198174695738e-07,37.281333333333336,0.011175369742825191,-9.027780226712418e-07,58.37066666666667,0.17800624208780486,0.46999999999999886,-0.0002915973013230526
S015,15758.0,15787.984375,N2,-1.1087083333333332,92.8035697959581,-192.93,125.67,318.6,26.195,42.97337285614918,1031.25,1023.1038411458334,0.07198059875565237,0.10642856726723118,0.06441510347391793,63.252448171015125,0.06988352009335376,63.702433234531945,0.014583333333333334,14,0.21298477499999996,0.0009696429365364374,-6.917695018906006e-07,37.27733333333333,0.01093414631123635,2.0138894351911336e-06,58.654333333333334,0.14750555545093563,0.5300000000000011,0.00024031256518895682
S015,15788.0,15817.984375,N2,1.0248958333333333,91.26899317282304,-194.99,129.45,324.44,30.26,42.452097805804684,1015.625,1008.88671875,0.0,0.09636964965693297,0.07880950133074056,63.25767085429097,0.03811942010997628,63.702433234531945,0.015625,14,0.2127819583333333,0.0009045191576728639,2.714822785053923e-08,37.28,0.012382783747336491,-4.23611226022941e-06,59.11866666666666,0.17507585657524444,0.5300000000000011,0.00030097230386618443
S015,15818.0,15847.984375,N2,-0.821333333333333,93.39282656859798,-193.06,129.25,322.31,27.505000000000003,42.10571084391023,1000.0,1014.794921875,0.0,0.11987768650679835,0.05581428468591172,63.25704911801222,0.03074434460288404,63.702433234531945,0.017708333333333333,17,0.21278202499999996,0.0011082329513125873,-6.09146649616606e-07,37.27733333333334,0.012092238098143367,6.250001695427131e-07,59.07633333333334,0.06954534891389678,0.21000000000000085,-7.892363252051658e-05
S015,15848.0,15877.984375,N2,0.915854166666667,89.33613032973408,-194.67,124.23,318.9,29.189999999999998,44.344385418690266,1015.625,1013.4440104166666,0.0,0.09090593428863095,0.04559597630883185,63.255642765058035,0.027234402822730507,63.85138996137829,0.009375,9,0.2124618833333333,0.0010348045723978813,2.1955778525330616e-07,37.284666666666666,0.011469767022722266,6.666668475115053e-06,59.108666666666664,0.031062660685924864,0.11999999999999744,-8.68055791030613e-06
S015,15878.0,15907.984375,N2,-1.4346770833333333,91.1900778942208,-192.84,127.1,319.94,28.305,55.67114355545551,1031.25,1023.2421875,0.0,0.12801909579781015,0.05581428468591172,63.25736054328301,0.033597079788683835,63.85138996137829,0.01875,18,0.21277134999999997,0.0010398745008413305,2.8817846359007885e-07,37.278666666666666,0.011175369742825191,1.1319447515039367e-05,58.92166666666667,0.0525409892898446,0.19000000000000483,-3.774306579401653e-05
S015,15908.0,15937.984375,N3,1.2261614583333331,91.8008939760221,-193.46,130.37,323.83000000000004,30.115000000000002,36.12945449392417,1015.625,1021.0611979166666,0.0,0.13928372696486196,0.09636964965693294,63.26063652077464,0.04778758314072571,63.702433234531945,0.029166666666666667,28,0.2132942583333333,0.0009489342223062118,3.832053990900081e-08,37.276,0.01171893055416335,-4.097223333664319e-06,58.619666666666674,0.10778012597671087,0.4100000000000037,-0.00017871532625741372
S015,15938.0,15967.984375,N2,0.15401041666666646,90.96998040310638,-202.29,137.44,339.73,26.475,60.44251119375232,1031.25,1026.4485677083333,0.0,0.15925921720229852,0.04559597630883184,63.25830031804683,0.03134546964004842,63.702433234531945,0.028125,24,0.21311282499999998,0.000982313745386374,1.6040911469431342e-07,37.276,0.01171893055416335,-6.041668305574115e-06,58.41400000000001,0.054990908339470096,0.14999999999999858,3.1250008477107356e-05
S015,15968.0,15997.984375,N2,-0.6913385416666668,93.01564988355663,-197.22,132.4,329.62,27.48,36.1190623104548,968.75,982.5113932291666,0.0,0.1682735042192389,0.04559597630883184,63.25876910408781,0.032374409267005994,63.702433234531945,0.03125,26,0.2131235083333333,0.0010766528068960892,1.606651911526675e-07,37.266666666666666,0.011642832797715717,1.3194448023666373e-06,58.788333333333334,0.27629794707083083,0.8900000000000006,0.0004944793008027619
