participant_id,window_start_time,window_end_time,sleep_stage,BVP_mean,BVP_std,BVP_min,BVP_max,BVP_range,BVP_median,SDNN,median_nni,IBI_mean,x_std,y_std,z_std,mag_mean,mag_std,mag_max,movement_density,burst_count,EDA_mean,EDA_std,EDA_trend,TEMP_mean,TEMP_std,TEMP_slope,HR_mean,HR_std,HR_range,HR_trend
S017,8925.0,8954.984375,W,0.14071354166666658,30.740976080408945,-171.66,83.01,254.67000000000002,3.16,62.45426995138242,1265.625,1240.0797526041667,0.8029216398392948,0.7096066985779281,0.5858567073928762,64.25553972059987,0.37303737222763383,65.87867636800242,0.2635416666666667,134,0.1465314,0.0016152795392748525,2.2634342077458137e-06,32.36533333333333,0.019787762772872936,-2.069445005817237e-05,53.626666666666665,0.9900011223338192,2.9000000000000057,0.001634444887815996
S017,8955.0,8984.984375,W,-0.4934895833333327,79.04962333026099,-774.25,334.84,1109.09,1.81,55.24569992278335,1312.5,1302.1809895833333,16.222295794966104,12.924476133806483,13.390255934561353,64.50580713213476,4.128384013771745,88.04544281222056,0.06041666666666667,17,0.15056606666666666,0.021892991584345486,1.382600201443256e-07,32.33400000000001,0.013063945294844208,-1.2152781074432701e-05,56.25233333333333,0.8283907424773785,3.5500000000000043,0.0004297570610235082
S017,8985.0,9014.984375,W,0.4526770833333341,132.0251295868198,-737.65,525.73,1263.38,-2.415,0.0,1312.5,1312.5,4.483743301422992,1.039726839627441,1.7673467514697152,63.92310635573502,0.626676817338621,67.48333127521195,0.11666666666666667,60,0.12891931666666667,0.0057749196011479004,-9.866669343172022e-06,32.315333333333335,0.01431394036905557,-1.8611116159698978e-05,64.24266666666668,3.1778891666569433,11.180000000000007,0.005712015438372245
S017,9015.0,9044.984375,W,-1.5121822916666663,143.8338872318592,-967.01,587.57,1554.58,1.625,0.0,1312.5,1312.5,1.8010531135167371,0.9606041935504271,0.8517693747184935,63.85711562752197,0.3900218796715607,65.06919393998976,0.09166666666666666,50,0.116697775,0.0017170165911763926,-2.6378932936993526e-06,32.284666666666666,0.013597385369579981,-1.2638892317407266e-05,68.11566666666666,0.8972093153526409,3.0600000000000023,0.00044906262181603255
S017,9045.0,9074.984375,W,1.251447916666666,172.25849648187227,-923.71,788.53,1712.24,1.85,0.0,1312.5,1312.5,3.4552946929213655,0.7066270809962085,0.8391147110281698,63.870435396051455,0.4741033489484767,67.86015030929418,0.16145833333333334,95,0.109856,0.0016678378368414598,-1.9173555548382026e-06,32.27133333333333,0.01257864150940831,3.4722231641218776e-06,64.69266666666665,1.9477763960190315,6.319999999999993,-0.0034784037213551754
S017,9075.0,9104.984375,W,1.1627239583333333,105.05812553170888,-669.48,565.92,1235.4,5.265000000000001,0.0,1312.5,1312.5,1.9769406341196323,0.6160601958660822,0.6629584367732934,63.86868038729188,0.37776613483076477,65.24568951279464,0.11979166666666667,76,0.10744354999999998,0.0012614580244700957,-1.0574924743631917e-06,32.26199999999999,0.014236104336043042,-6.6666684751164824e-06,62.40566666666667,0.5699162706534667,1.8100000000000023,0.0009062849680677538
S017,9105.0,9134.984375,W,3.82151041666667,205.24885904146413,-695.32,921.78,1617.1,3.51,0.0,1312.5,1312.5,4.815035407161844,7.6966571900430685,11.334754812816493,64.03007615449584,2.29409880260848,100.62802790475425,0.03125,9,0.10584235833333334,0.005836822584243121,-3.820868440990787e-06,32.254666666666665,0.014313940369057579,-1.201389214786751e-05,61.764,0.7704916179513788,2.1799999999999997,-0.0013440975868320281
S017,9135.0,9164.984375,W,-5.883776041666664,243.34177730475147,-1283.94,1857.64,3141.58,-2.4299999999999997,0.0,1312.5,1312.5,24.724294815489966,12.393764533246367,3.743433921687635,63.8671090796395,1.3496460558591037,75.43208866258443,0.042708333333333334,20,0.10614143333333334,0.00833036625418648,1.250554332290129e-05,32.23500000000001,0.014776106839534921,-1.0868058503705706e-05,59.78433333333333,1.057533871272636,3.25,-0.001658993505586346
S017,9165.0,9194.984375,W,1.223776041666667,108.64389154654268,-536.76,394.17,930.9300000000001,1.48,0.0,1312.5,1312.5,19.84384216404669,24.59601453907924,8.144442283187148,64.21047429887818,3.659233569083109,127.82409788455384,0.040625,21,0.06217549999999999,0.056154072031183395,-8.90228909024769e-05,32.212666666666664,0.01314872194887658,-1.0694447345498133e-05,56.017666666666656,1.1653945922113922,3.720000000000006,0.0008610766224708727
S017,9195.0,9224.984375,W,-0.6083697916666665,64.84630435771061,-526.74,380.46,907.2,5.52,100.4230976155944,1234.375,1190.5029296875,28.147274956140905,10.706887061866093,5.359957957442909,62.94997738928061,1.3498969179387597,72.91090453423274,0.08958333333333333,49,0.08897755833333333,0.053180136003304186,7.757916535893155e-05,32.193999999999996,0.017048949136726367,3.4027787008402203e-06,58.38433333333333,0.29326533302720176,1.009999999999998,-0.0002213542267128433
S017,9225.0,9254.984375,W,0.23520312499999912,120.1612516412858,-452.7,580.37,1033.07,1.135,130.32433975187126,734.375,824.7802734375,1.9306329920520886,1.4988870292283167,2.3033028444074732,62.35800921703002,0.9829478566021141,68.78226515607058,0.078125,44,0.14107704999999998,0.025710206826229536,-4.27551808689184e-06,32.202,0.020231987873991362,2.3055561809776325e-05,60.303999999999995,0.7042565820305363,2.6499999999999986,0.00046243068099790526
S017,9255.0,9284.984375,W,1.4290416666666668,65.55759926645878,-232.91,196.49,429.4,4.585,249.8936405697877,734.375,977.0833333333334,15.890913802958455,6.177557949725945,6.062813207831455,62.6328284625326,3.8567644621237043,135.50645741070792,0.0375,13,0.13402145833333334,0.004905194042875767,-2.8840339854692874e-06,32.23633333333333,0.01974560429282701,2.4062506527374173e-05,61.93766666666667,1.1078287573246852,3.530000000000001,0.0015083684647266885
S017,9285.0,9314.984375,W,-2.9054999999999995,129.9245233221164,-542.27,397.51,939.78,-0.47,0.0,1234.375,1234.375,11.902743724021038,6.318128678651615,8.176789471895942,62.55002666693952,3.2309372683201767,105.24732775705044,0.041666666666666664,10,0.13222807499999997,0.004119791805343446,1.8517628721144966e-06,32.26199999999999,0.01423610433604304,1.375000372992913e-05,66.09633333333333,2.2483111933676403,6.980000000000004,0.004019271923630621
S017,9315.0,9344.984375,W,0.27059895833333414,132.35223874706463,-362.67,366.08,728.75,8.195,0.0,1234.375,1234.375,4.042030562441152,1.7214625060460138,5.293175535372305,62.42625162660679,1.8150365978602767,71.47726911403373,0.10416666666666667,61,0.13327419166666668,0.002211398129750474,9.239501204291771e-07,32.285333333333334,0.014313940369055296,1.2291670000994216e-05,71.29366666666667,1.9741858800246976,6.25,0.0034704523303093347
S017,9345.0,9374.984375,W,1.37675,66.6809668165012,-247.6,183.16,430.76,1.7149999999999999,200.21196100743916,1234.375,1065.52734375,3.966001207967192,2.196078417695203,3.6228675480664947,62.31745540028291,2.3216289038267273,72.94518489934754,0.128125,79,0.13774675833333336,0.004244685345613251,2.9463768843253304e-06,32.312666666666665,0.014360439485691396,1.2361114464275602e-05,74.893,0.2817345085951175,0.9199999999999875,-1.2881947938896316e-05
S017,9375.0,9404.984375,W,0.12236458333333318,36.70348629178495,-139.66,108.05,247.70999999999998,2.25,138.01346189379467,1140.625,1052.099609375,3.627160365590186,2.4039455054255194,2.6654210551133692,62.28196238718861,2.1371892446600467,73.57988855658861,0.125,78,0.13708499166666666,0.0022398721373322224,6.768957999391822e-07,32.335,0.015652475842497987,1.8368060538211208e-05,71.18066666666665,2.236695379845503,6.929999999999993,-0.0040162510894778325
S017,9405.0,9434.984375,W,-0.11754687500000015,32.46544567197707,-110.79,113.03,223.82,-0.74,202.92739777124285,1140.625,1030.6315104166667,3.887209706917747,2.329749619579442,3.1356042302702822,62.29332001478291,2.1879381167012237,72.53964433328854,0.12708333333333333,86,0.13709568333333333,0.0017339015253820553,6.783135520598857e-07,32.37733333333333,0.019310331143946056,2.625000712076938e-05,61.46133333333333,3.686151320219444,11.209999999999994,-0.006609515681834766
S017,9435.0,9464.984375,W,-0.035848958333333056,59.603785030015246,-668.22,246.55,914.77,1.925,171.58232459521656,656.25,818.0989583333334,19.788811636180235,6.396097646547202,5.983233137363249,62.62681145524642,4.60255674768733,142.8915672809281,0.034375,21,0.13651930833333334,0.0027100166321624725,-7.877608473743633e-07,32.42533333333333,0.016069294390926737,1.3958337119775606e-05,54.36333333333334,0.8045136557089768,3.0700000000000003,-0.00039798621907178124
S017,9465.0,9494.984375,W,-0.4425729166666662,65.66446458007887,-326.39,283.38,609.77,3.185,0.0,1000.0,1000.0,18.990326027714453,7.480129928684394,7.305843361462263,62.66632916809553,4.940894513739371,167.32602905704778,0.0375,20,0.136081625,0.002261328621491139,-1.9779065695276098e-06,32.443999999999996,0.012806248474866737,1.1319447515042032e-05,67.02033333333333,6.41438304818857,21.43,0.01155934341345036
S017,9495.0,9524.984375,W,0.6486874999999998,105.54480128148509,-557.75,340.66,898.4100000000001,-5.48,214.46875565617935,1437.5,1261.81640625,16.650157155112097,7.863969346894028,3.867855056019421,62.703961606131195,4.468019572117509,140.2355161861645,0.04479166666666667,18,0.13426691666666665,0.0026697371861394087,-5.522744553695884e-07,32.46733333333334,0.006798692684789027,7.22222418137448e-06,90.00966666666665,5.792801557872399,18.150000000000006,0.010322815300242866
S017,9525.0,9554.984375,W,-0.06366145833333323,111.28329706476232,-433.42,435.21,868.63,8.055,0.0,1437.5,1437.5,19.219929503100854,8.802145216744988,8.648784574110687,63.136187312747204,5.387096615342311,130.43772460450236,0.07708333333333334,41,0.12792684166666665,0.005647857071485659,-1.9893123885938503e-06,32.46933333333334,0.013148721948876965,-1.3194448023668867e-06,94.83933333333333,2.673388528108518,8.400000000000006,-0.004690070716707552
S017,9555.0,9584.984375,W,0.2057239583333337,119.4108100376632,-549.03,472.79,1021.8199999999999,0.9299999999999999,175.35914549456183,953.125,1030.7942708333333,15.524038259708355,7.486362311545055,4.732849956062121,62.71234813698914,4.256359885912824,152.34828518890524,0.03333333333333333,14,0.13041365,0.004860448550374062,-8.806677736186428e-07,32.471333333333334,0.015434449203720096,9.027780226718543e-06,81.06666666666666,4.154978807273137,14.079999999999998,-0.007457015911733918
S017,9585.0,9614.984375,W,-0.4516562499999999,90.77917353257209,-342.31,270.57,612.88,5.220000000000001,0.0,953.125,953.125,26.57661289708674,10.847618586263787,5.818522026056817,62.86446606590166,4.944330718014201,143.92011673147016,0.03958333333333333,21,0.13045638333333331,0.0047022749160793315,-6.020726025587576e-06,32.476000000000006,0.010519822558707393,8.541668983743784e-06,74.41733333333335,0.4782672428209508,1.5699999999999932,0.0006148612779029051
S017,9615.0,9644.984375,W,0.9835833333333338,71.4180582495694,-442.73,273.7,716.4300000000001,5.13,0.0,953.125,953.125,20.14007706025614,9.409618894215376,2.7109440541867618,62.92580567884867,1.570317271904931,78.21764506810467,0.046875,22,0.127894875,0.002914679969746536,3.507639623383145e-06,32.48033333333334,0.011685698761973081,5.104168051261181e-06,82.05366666666667,3.962755340528719,12.219999999999999,0.007121842209701119
S017,9645.0,9674.984375,W,-0.6520729166666669,83.34495812444516,-550.36,391.74,942.1,1.125,81.39672317780051,1140.625,1091.9840494791667,28.516785821121363,12.928020505580442,3.564538738031971,63.22183396478503,2.798571384799841,110.77003204838391,0.019791666666666666,6,0.12668875,0.0054116185845056244,3.2062921024012866e-06,32.49066666666668,0.008137703743822654,2.152778361755978e-06,88.16799999999999,0.8584109350033557,2.3200000000000074,0.0014545142834511415
S017,9675.0,9704.984375,W,-0.18671354166666648,73.30989636312486,-240.5,298.06,538.56,-1.8900000000000001,29.418147257862106,1015.625,1010.4329427083334,1.4634374962927372,1.0111337661533983,1.2581660346843468,62.772025529722896,0.9595454978701841,69.23871749245504,0.05,27,0.13161981666666664,0.001133321085595586,2.365929461243739e-08,32.48800000000001,0.009797958971133374,-1.6666671187788741e-06,88.419,0.8060287422501324,2.549999999999997,-0.001417396217826661
S017,9705.0,9734.984375,W,-0.2301145833333324,81.28774451362192,-491.6,323.25,814.85,2.175,0.0,1015.625,1015.625,15.08602326238641,9.14897624196509,2.5479566976958874,63.036257188366704,2.56236147893959,103.24727599312246,0.03333333333333333,10,0.12919704166666668,0.003128392825919384,3.004710667510483e-06,32.48766666666667,0.01054619467970493,-6.006946073933411e-06,85.58233333333334,0.9767452186840859,2.5,-0.001654062948693291
S017,9735.0,9764.984375,W,-0.5685572916666668,77.59553480530099,-454.19,372.1,826.29,4.895,78.98367051672888,1078.125,1077.6123046875,34.190976869717474,16.875287774038025,3.325888659180263,63.95448924583737,2.784326125068535,119.0546093185812,0.023958333333333335,6,0.11270566666666666,0.009581649158968178,1.43540676958734e-05,32.47833333333334,0.015509853498842551,-1.6145837713171996e-05,79.00333333333334,4.666288556110615,13.5,-0.00828909947078436
S017,9765.0,9794.984375,W,0.4256927083333337,71.9774759512434,-205.82,254.83,460.65,6.085,0.0,1078.125,1078.125,1.1288802681073942,1.1879563267961495,0.922786743112345,63.09550998432296,0.6441685738491337,67.21606950722423,0.08541666666666667,50,0.13008294166666665,0.0017792540632515642,2.0314690840573594e-06,32.443999999999996,0.012806248474866257,-6.319446158703015e-06,65.31133333333335,3.426602528582631,11.249999999999993,-0.00617646000880534
S017,9795.0,9824.984375,W,0.31936979166666657,150.5018451242401,-699.56,569.97,1269.53,2.9800000000000004,0.0,1078.125,1078.125,30.71021025471641,14.254861766582481,4.467402064578161,63.53174274671666,4.3111963032336735,136.194713553794,0.04791666666666667,18,0.124980825,0.006056980808211435,7.490543481592738e-06,32.419333333333334,0.01339983416149506,-1.0972225198629302e-05,61.38,2.6301495521484455,6.8999999999999915,0.0045282651172594175
S017,9825.0,9854.984375,W,-0.06430729166666715,65.7193816599803,-229.27,233.1,462.37,1.19,113.58053959344493,1312.5,1262.4348958333333,1.8102416486173576,1.0269158712364037,1.7979045963287374,63.024807196582124,1.063470498094613,70.18546858146635,0.05416666666666667,35,0.13261234166666666,0.0014121039119922782,1.5993270397480066e-06,32.39133333333333,0.011469767022722984,-3.4722231641227903e-06,65.16466666666668,0.1743890924213889,0.730000000000004,-0.00021361116905685207
S017,9855.0,9884.984375,W,0.3609479166666663,74.55273957657282,-511.24,339.69,850.9300000000001,2.8499999999999996,0.0,1203.125,1203.125,30.611351816377557,16.06700376629201,2.607118327238375,63.4485309980167,4.816265585878222,149.29166085217219,0.019791666666666666,6,0.12669908333333335,0.008477830749060881,-6.560687543589288e-07,32.36933333333334,0.016918103387264977,-3.40277870084118e-06,63.05566666666667,0.7018246852946165,2.4299999999999997,-0.00052406264216109
S017,9885.0,9914.984375,W,-0.0074166666666664344,86.53160594541775,-469.39,440.96,910.3499999999999,4.359999999999999,49.97735040313361,1203.125,1185.5143229166667,31.61956468169228,15.34848489259653,2.786537382056308,64.05488158016266,1.3690248663453823,75.75618786607468,0.034375,12,0.11275909166666667,0.010169325161153217,1.4890863197391274e-05,32.34133333333334,0.013597385369580226,-8.680557910309887e-06,66.19066666666667,1.0149447713491062,3.8999999999999986,0.0007238196407930884
S017,9915.0,9944.984375,W,-0.16730208333333338,47.09402498163908,-164.66,143.86,308.52,5.01,30.993608272121005,1171.875,1186.7431640625,10.312371158706933,6.012781524940572,1.8938451112896102,63.15326031307689,1.8461907166055553,97.86214794290998,0.020833333333333332,11,0.129026125,0.007030689933620191,-5.462891889890375e-06,32.30133333333333,0.016878651868229223,-2.3402784126188904e-05,63.67766666666667,1.9208395444585042,5.260000000000005,-0.003366424524312207
S017,9945.0,9974.984375,W,0.043260416666666995,80.84990159687179,-446.78,406.49,853.27,1.4649999999999999,50.59183381753151,1171.875,1198.2747395833333,24.619506490309444,13.269126656348647,1.179762345859679,63.281651689316995,1.4945237163159086,78.87331614684399,0.0375,10,0.12878063333333334,0.00694095511191043,7.549163940202878e-06,32.294000000000004,0.012000000000000219,-1.666667118779639e-06,60.47966666666666,1.508846100686069,5.060000000000002,0.001978160258832534
S017,9975.0,10004.984375,W,-0.4362552083333337,52.64932972317361,-170.64,200.25,370.89,1.275,148.60342266816903,1296.875,1365.0960286458333,10.275932589385608,6.34654589113353,1.4852979586741735,63.111154491200935,2.3460719911735337,117.10251918724892,0.011458333333333333,5,0.13131018333333333,0.009017697196793401,-8.048676228482046e-06,32.272666666666666,0.016918103387265723,-1.027778056580291e-05,63.85933333333333,0.3829354456766255,1.4300000000000068,0.0005410418134336523
S017,10005.0,10034.984375,W,0.06629687499999977,79.8611811812991,-618.23,431.1,1049.33,3.585,95.10315485426845,1609.375,1537.0361328125,28.11049191777645,12.921235079210586,1.0712061607780683,63.12431101171608,1.538906851027349,73.61385739111897,0.03229166666666667,13,0.12801210833333332,0.009383670289209717,1.1740665294234284e-05,32.254666666666665,0.014313940369057579,-1.3125003560386415e-05,64.82466666666666,0.9616088370827064,3.1899999999999977,-0.0011068753002591424
S017,10035.0,10064.984375,W,0.5388541666666671,96.22994960823648,-508.53,328.17,836.7,2.7199999999999998,139.19616447513863,937.5,976.3671875,24.81356097297851,14.824790925954533,2.5996761283325704,63.2565665211537,3.5248404627997534,118.6001686339442,0.03854166666666667,15,0.12620832499999998,0.010981098088808863,3.959570301532739e-06,32.23733333333333,0.01590248058916961,-1.6875004577638724e-05,66.40366666666667,3.9170673412076487,11.740000000000002,0.006655800416612526
S017,10065.0,10094.984375,W,-0.5862812500000004,73.55888517969282,-629.65,350.29,979.94,-1.8250000000000002,0.0,937.5,937.5,23.424921068881606,11.78383702807225,2.438923862972151,63.21650483632864,2.924318942666546,119.57006314291216,0.023958333333333335,8,0.12770264166666667,0.007059417370666211,7.915653405938959e-06,32.20666666666666,0.019379255804997986,-2.048611666832594e-05,84.89066666666668,6.09529104218075,20.769999999999996,0.010913266849301986
S017,10095.0,10124.984375,W,-0.011401041666666601,101.53936469555376,-629.02,815.71,1444.73,0.33999999999999997,75.47658742256185,937.5,911.9466145833334,32.89331435296942,16.567179337672336,3.0389612326029907,63.36830096205092,2.8862273269679775,127.80453826057978,0.020833333333333332,8,0.1256211,0.009962894519499174,-8.110990915524873e-06,32.17299999999999,0.01734935157289902,-1.8993060707755005e-05,101.382,1.9898130565457648,7.069999999999993,0.0003254861994048931
S017,10125.0,10154.984375,W,0.5451822916666667,75.95986370670875,-215.09,239.24,454.33000000000004,2.425,160.0487471784282,781.25,857.0719401041666,3.5272525308895406,1.454115552468426,2.6057609703069464,63.13307284499606,2.0962537573223354,87.76103919165953,0.042708333333333334,16,0.12995476666666667,0.008935290748611498,-1.3162729265063258e-06,32.146333333333324,0.01048279012900884,-9.82639155446624e-06,90.13000000000001,4.581604522435344,15.879999999999995,-0.008240557790949921
S017,10155.0,10184.984375,W,-0.8266197916666673,143.266631604986,-804.81,515.69,1320.5,-4.46,0.0,781.25,781.25,26.000398551298957,20.151980894799774,29.26190989425882,63.91293469174307,10.620651459412418,142.69898387865277,0.06041666666666667,19,0.115064625,0.02723282327237437,-3.824702448107217e-05,32.122,0.018330302779823227,-2.4722228928555815e-05,74.261,3.008567045399964,9.860000000000014,-0.005043577757046918
S017,10185.0,10214.984375,W,0.6993177083333332,17.672887630229763,-89.62,53.97,143.59,1.74,266.46814494278476,1312.5,1130.3466796875,0.10642856726723121,0.2587026929379231,0.657481483421143,61.96623705497249,0.13710791475500672,62.55397669213365,0.14479166666666668,25,0.08082301666666666,0.0014734474596635218,-1.628323792405541e-06,31.994000000000007,0.05244679844057849,-9.201391384926028e-05,66.09333333333333,3.231118829273985,10.350000000000001,-0.005815557133126392
S017,10215.0,10244.984375,W,-0.246697916666666,79.2736525379045,-663.95,453.39,1117.3400000000001,-1.6549999999999998,67.43038494596189,1328.125,1341.0563151041667,3.7747779494572034,4.627972018065796,3.699844567868884,62.2110074623456,3.55286394147685,123.60420704814217,0.023958333333333335,9,0.08338459166666667,0.013745101191270433,-2.3667196090276713e-06,31.832666666666665,0.041225666223308165,-6.87500186496372e-05,57.67266666666667,1.6443234339860144,6.3700000000000045,-0.00269055628541566
S017,10245.0,10274.984375,W,-0.9783906249999991,286.9994729513227,-2131.68,1954.51,4086.1899999999996,7.84,0.0,1375.0,1375.0,21.9689079534388,16.547500939005527,30.265571921739728,62.79502913602725,8.448060870528513,140.5418087260869,0.0625,25,0.07783401666666667,0.018089077274229762,2.0817968320846443e-05,31.738,0.026633312473917006,-4.4305567574209e-05,59.181333333333335,4.24204332315873,13.229999999999997,0.007618960400108616
S017,10275.0,10304.984375,W,-0.641562500000001,164.39837673556195,-815.4,1030.12,1845.52,-16.72,0.0,1375.0,1375.0,13.327055162546433,8.446078714984974,25.77961886675074,62.30711024777013,2.242127911653582,77.82673062643708,0.06041666666666667,21,0.11414666666666666,0.0038856709573623052,5.24521192632702e-06,31.699333333333335,0.016918103387265668,-1.8055560453439405e-06,69.19500000000001,1.0803417669114397,4.269999999999996,0.0005438543141965924
S017,10305.0,10334.984375,W,4.234999999999999,146.25667914199963,-700.06,769.13,1469.19,-4.835,0.0,1375.0,1375.0,28.053345740718054,15.848948953880452,21.72195507426217,63.45202265894324,9.723049701043081,128.17566071606575,0.08541666666666667,23,0.14192690000000002,0.0929067816742854,-3.322204243219467e-05,31.67466666666667,0.013349989596334448,-8.680557910308074e-06,68.767,1.0870116528047602,3.0800000000000125,-0.0018389241099512038
S017,10335.0,10364.984375,W,-2.5659843750000007,153.62786142666639,-906.62,699.97,1606.5900000000001,-10.629999999999999,0.0,1375.0,1375.0,29.981396937540936,34.902156749833246,24.46427186476769,65.56045810103565,10.253214955109588,120.94626906192683,0.10625,33,0.074365025,0.02578298333218459,-2.281144824529304e-05,31.669333333333338,0.01093414631123863,-3.680556553970722e-06,68.88100000000001,1.4779182431154076,4.469999999999999,0.0023992714841773776
S017,10365.0,10394.984375,W,0.16856249999999956,103.41785081958494,-774.68,655.23,1429.9099999999999,2.31,72.28051384488987,1250.0,1266.69921875,19.005751568010417,12.209663563407357,7.2984009824784,65.11467551973773,4.85657529808152,96.01041610158765,0.09895833333333333,40,0.08665065833333332,0.03382305497056109,-5.026067552644193e-06,31.628,0.02271563338320105,-3.1875008646649296e-05,69.58366666666666,2.3971448062689538,6.390000000000001,-0.004107535836462627
S017,10395.0,10424.984375,W,-0.042526041666666244,66.75386127271612,-500.67,251.36,752.03,1.775,70.43554583394953,1250.0,1213.2975260416667,4.213862781336212,3.339587882092972,3.0926027263882263,63.96338999433421,2.789367986845571,112.08478933378963,0.03333333333333333,12,0.06283721666666667,0.0067011891795204686,5.736183847706118e-06,31.547333333333327,0.03213858878185006,-5.0555569269630695e-05,68.00833333333334,0.45900677796980577,1.6200000000000045,0.0004821876308017659
S017,10425.0,10454.984375,W,0.06162500000000004,13.400050297830042,-37.63,39.1,76.73,1.6949999999999998,69.13215695505026,1171.875,1160.9049479166667,0.2559004221209232,0.16532992583014122,0.48543790189603264,63.844860318208326,0.31862090609578975,64.69157595854347,0.35104166666666664,140,0.06527064166666666,0.0011264156781271076,7.386310597414985e-07,31.46266666666667,0.02606828639468919,-3.881945497489508e-05,65.217,0.9167047870861511,4.219999999999992,-0.0009915627689786144
S017,10455.0,10484.984375,W,0.3659843749999999,18.546331068821647,-72.65,138.93,211.58,0.79,49.01931968305076,1187.5,1192.87109375,0.777113353977755,1.2626439515017245,1.1460056688583857,63.83662117945925,0.3265420701050389,65.81033353509159,0.075,40,0.05984844999999999,0.010088085597913675,-1.356084873069898e-05,31.402000000000005,0.013266499161421317,-1.0416669492368888e-05,57.30966666666667,2.800571945553662,8.909999999999997,-0.004956494400090712
S017,10485.0,10514.984375,W,-0.5927968750000001,33.777939812231594,-143.36,210.04,353.4,0.32999999999999996,61.76457373910369,1296.875,1253.3203125,9.029675648532915,10.23943047317235,8.443123061991372,63.730765192650296,1.8082522757090884,77.72387020729218,0.058333333333333334,20,0.06886804166666667,0.0157852365083094,2.047608129233976e-05,31.386,0.013063945294843338,-1.0833336272063644e-05,54.809666666666665,0.33954364798783815,1.3299999999999983,0.0004833681866775679
S017,10515.0,10544.984375,W,-0.9577916666666666,102.63072489420877,-841.35,440.42,1281.77,2.285,51.96242221384652,1359.375,1338.0045572916667,43.516692785622666,15.466969980356977,16.012766174385845,64.77638910635109,6.3013422651528135,135.28118864054971,0.078125,35,0.11914200000000001,0.12396886586854514,2.459023496913926e-05,31.380000000000003,0.048921706157219746,-4.4930567743752685e-05,55.909666666666666,1.371887952988711,4.560000000000002,0.0020262158274239987
S017,10545.0,10574.984375,W,0.6745729166666663,89.3660241292616,-667.61,655.51,1323.12,1.62,35.94168670887236,1359.375,1335.6119791666667,9.533755590517424,4.384010438632836,4.158230913693614,64.65717196762995,3.1364969549367716,84.32081593533118,0.042708333333333334,10,0.10039864166666668,0.005771406336119233,8.059922108268802e-06,31.339333333333336,0.01611072796479397,8.750002373590581e-06,64.072,2.232928421005324,6.780000000000001,0.0037504871284958553
S017,10575.0,10604.984375,W,0.3663541666666666,24.601483573141802,-131.51,95.11,226.62,0.115,57.95859301280598,1156.25,1200.6754557291667,0.5425783593562008,0.5666044313250844,0.7447705416584508,64.35810893470865,0.38522419642183203,65.40642170307133,0.21041666666666667,97,0.11179835,0.0025303514434757883,3.2585972381177413e-06,31.36066666666667,0.013399834161494775,9.166669153284647e-06,68.92766666666667,1.3591239416951229,4.109999999999999,0.002280521451964368
S017,10605.0,10634.984375,W,0.6230937500000018,151.15107775663134,-771.9,860.64,1632.54,0.165,84.95195558115847,1343.75,1284.4889322916667,16.405164646638976,16.901048536208155,9.671248913948785,64.55844317955922,2.920494689538723,83.69587803470371,0.08854166666666667,38,0.12555700833333333,0.009124003549699581,1.0470771286559053e-05,31.370000000000005,0.010327955589886225,1.3888892656491852e-06,64.824,2.322612896430799,7.060000000000002,-0.0034774314988692207
S017,10635.0,10664.984375,W,-0.4833281249999991,135.2962995610492,-771.73,593.44,1365.17,2.2350000000000003,45.38652358836816,1218.75,1238.28125,16.63407020745875,12.101676988645004,7.339292086661584,64.94010209480594,4.987047214152159,112.27644454648535,0.07083333333333333,30,0.12600545000000002,0.023765270784224194,2.3345162148752746e-05,31.404666666666664,0.023055488621053617,3.5277787347489304e-05,70.43199999999999,2.812083924778918,9.070000000000007,0.004908473553730891
S017,10665.0,10694.984375,N1,0.25689062499999993,33.78940505741216,-246.59,121.81,368.4,0.9450000000000001,128.91361099958434,1312.5,1323.14453125,0.7523912977504162,0.4296909722081932,0.7033649282003065,64.69813340815806,0.37287196218677227,65.88626564011653,0.23541666666666666,108,0.14344649166666665,0.0018226128817160374,2.7609410701337607e-06,31.469333333333335,0.023935097428021548,3.8125010342070745e-05,74.779,1.0387118625169034,3.8500000000000085,-0.0012075350497870684
S017,10695.0,10724.984375,W,-0.7800364583333335,41.04363929415967,-194.39,259.65,454.03999999999996,-2.38,78.16206963895456,1296.875,1346.5901692708333,0.6671799781647295,0.5078966276468077,0.6270790074601622,64.54400112040486,0.25828479600168186,65.49045732013177,0.0375,27,0.14830335833333333,0.0016633570111666397,2.3933302933296124e-06,31.529333333333327,0.015040685563571294,2.118056130115043e-05,63.46966666666667,5.249519649982802,16.75,-0.009439481727289964
S017,10725.0,10754.984375,N1,0.3549010416666665,41.99997840637589,-478.24,177.59,655.83,1.49,96.55476592310107,1296.875,1367.7327473958333,0.38167525235976324,0.44910090543650527,0.4201882431984767,64.54911206645214,0.38950579705154226,65.98484674529449,0.08125,61,0.15279664166666668,0.0014359419196462065,1.8177598246961382e-06,31.564666666666664,0.013597385369580469,1.402778158305677e-05,54.10533333333333,0.5325206307949228,1.6099999999999994,0.0007163196387585837
S017,10755.0,10784.984375,N1,0.6207447916666673,54.15357596800389,-296.32,345.68,642.0,1.4649999999999999,113.92814090978833,1281.25,1342.9443359375,0.617282209681187,0.4513675208617573,0.5663602112515399,64.57650136990551,0.2858685407542586,66.31741852635702,0.036458333333333336,21,0.157152025,0.0018325900317242233,2.6962722157856447e-06,31.58533333333333,0.015216949614017447,7.013890791528387e-06,53.11133333333333,0.6422913842036352,2.1299999999999955,-0.0006040973860941259
S017,10785.0,10814.984375,N2,-0.7097031250000002,30.215284300840448,-159.17,166.42,325.59,-1.0,31.209613345982397,1234.375,1251.8473307291667,0.5114562118082273,0.44179317174128235,0.4964457002868826,64.52604196061135,0.3200139019240571,65.56675987114203,0.035416666666666666,30,0.16172019166666668,0.0015017318241274747,1.738405202475375e-06,31.613333333333337,0.014681810363696516,1.0347225029086432e-05,53.39199999999999,0.2982213942694254,0.9399999999999977,-0.00018812505103218567
S017,10815.0,10844.984375,N2,0.15521874999999982,46.221387534096685,-250.13,227.53,477.65999999999997,1.795,0.0,1234.375,1234.375,0.47889031886226313,0.5059369745553512,0.43511128645120456,64.48564223935617,0.4435500472662177,65.60487786742691,0.08020833333333334,61,0.16383358333333334,0.0012038851729804683,9.215293298419363e-07,31.627999999999997,0.0139999999999997,9.513891469696917e-06,58.64133333333334,2.763894273584928,9.030000000000001,0.004951737454355863
S017,10845.0,10874.984375,N2,0.07231249999999978,42.07650441292239,-147.69,132.98,280.66999999999996,-2.12,0.0,1234.375,1234.375,0.3095625834230545,0.4720255922322668,0.3030498188554702,64.54770790164297,0.38819622724109226,66.12866246946176,0.04895833333333333,35,0.16650232499999998,0.0011031464632472883,9.093212102108328e-07,31.63466666666666,0.013349989596333572,6.180557232138874e-06,64.31133333333334,1.3590750122376933,3.3799999999999955,0.0022840978418234136
S017,10875.0,10904.984375,N2,-0.11344270833333284,119.68620340886835,-417.38,566.5,983.88,2.51,0.0,1234.375,1234.375,0.5337197493379211,0.32301577780092,0.30405070563513287,64.62669746814126,0.31020051796078874,65.49045732013177,0.084375,65,0.16787936666666664,0.0012345206825142962,8.61206396811634e-07,31.650666666666663,0.01209223809814558,1.7361115820615546e-06,62.648,1.7392151486614107,5.380000000000003,-0.003123403625055236
S017,10905.0,10934.984375,N2,0.7788541666666678,139.44021077500827,-837.06,647.36,1484.42,3.745,0.0,1234.375,1234.375,0.7166174583396795,0.3747163278920321,0.5292445808781503,64.63751960963961,0.30002840996852437,66.4304147209695,0.06875,46,0.16918139166666665,0.0013078914410597046,1.4312085045596024e-06,31.66133333333333,0.01334998959633518,1.131944751504224e-05,58.89866666666667,0.7486865536094232,2.230000000000004,-0.001287500349256822
S017,10935.0,10964.984375,N2,-0.7543749999999992,103.7999075627047,-505.31,423.0,928.31,4.34,0.0,1234.375,1234.375,0.3867376012520921,0.3026503299555813,0.37360272088885477,64.63798310281422,0.3193332642174182,66.04543890383347,0.109375,73,0.17114504166666664,0.0011357960013123902,3.2466827383579165e-07,31.672666666666675,0.011234866364235622,1.8055560453443477e-06,59.32966666666666,0.7434042567061936,2.3200000000000003,0.0006826737962982294
S017,10965.0,10994.984375,N2,-0.013244791666667114,90.59420324965653,-385.84,487.12,872.96,2.4299999999999997,23.283132182594716,1281.25,1260.498046875,0.4260403932336307,0.317691256371654,0.37407292812439064,64.62816799923199,0.2973932240501928,66.1362230551458,0.08541666666666667,66,0.17358952500000005,0.0011805893652642283,1.027191033851733e-06,31.683333333333334,0.013984117975602004,1.0694447345499058e-05,57.36133333333333,0.6278679974502782,2.0,-0.0009691669295700224
S017,10995.0,11024.984375,N2,0.11183333333333331,74.53600441700233,-601.91,301.33,903.24,-0.2,0.0,1281.25,1281.25,0.4293840468883564,0.22511571098733496,0.2875433995020964,64.64128708035051,0.23461939897548678,65.97726881282674,0.065625,42,0.175959375,0.001193262558859118,9.115451691474552e-07,31.691333333333333,0.014544949486180642,2.500000678168533e-06,55.85699999999999,0.5187558835007721,1.5499999999999972,0.000493368189390242
S017,11025.0,11054.984375,W,0.27272395833333446,87.58623491324403,-274.41,438.94,713.35,2.73,24.955390495574587,1296.875,1294.4742838541667,0.6052710810845189,0.39273872561439904,0.4695548645614624,64.59814081353515,0.32112318718931154,65.91661399070799,0.071875,52,0.17724034999999996,0.0014231630712957717,1.2529052877889819e-06,31.71333333333333,0.01795054935711463,1.5347226385423497e-05,57.13466666666667,0.7803961956738529,2.8999999999999986,0.0011932642125825229
S017,11055.0,11084.984375,W,0.49933854166666664,113.87905320965335,-718.99,451.99,1170.98,3.615,0.0,1296.875,1296.875,13.514719341846833,14.49443798975624,7.911999652316972,64.12050983828576,4.8488410723559525,160.5584005899411,0.035416666666666666,17,0.1705368416666667,0.04063779588203487,-2.8929557543825287e-05,31.60066666666667,0.11427841246515306,-0.00018319449413913206,61.79566666666667,0.9845665148796314,3.6300000000000026,0.0015155906889080645
S017,11085.0,11114.984375,N1,-0.684505208333334,113.31558898512971,-555.83,511.39,1067.22,1.845,0.0,1296.875,1296.875,6.704103140236624,6.617251430394311,6.590673568126191,63.52320557333201,1.6138268251376977,80.00624975587844,0.0375,20,0.005614441666666667,0.00401030499628942,-1.0596255044557026e-06,31.658666666666665,0.075486569813592,0.0001115972524949152,64.131,0.9566237504891874,3.1999999999999957,0.0008128821649528445
S017,11115.0,11144.984375,W,-0.1254531249999999,114.80510932982111,-601.41,553.82,1155.23,3.3099999999999996,0.0,1296.875,1296.875,1.7970096567901974,1.3918471533411594,1.491783049463516,63.40361850667826,0.8719672736247962,72.80796659706958,0.058333333333333334,35,0.008133291666666665,0.005098549524776357,1.5956317262455855e-06,31.767999999999997,0.037363083384538275,6.09027942987171e-05,65.85566666666666,2.9984303486250194,10.090000000000003,0.005246286145368421
S017,11145.0,11174.984375,N1,-0.3363125000000001,73.00280334048145,-286.02,607.64,893.66,2.185,0.0,1296.875,1296.875,1.0711170181948686,0.8899906366548658,1.1512655325288295,63.506241420126194,0.5313197612055504,67.94850991743675,0.029166666666666667,21,0.009126125,0.0013891862759813746,6.318823328673862e-07,31.844,0.025897232799407602,3.7291676782682846e-05,73.45066666666668,1.743134979155532,6.950000000000003,0.0018763199534288094
S017,11175.0,11204.984375,W,1.158671875,44.77906124747184,-280.57,150.65,431.22,4.005,0.0,1296.875,1296.875,0.3638966748000805,0.4278499217664479,0.6239957209165959,63.418270078950854,0.3212919646992831,64.50581369148055,0.25104166666666666,101,0.009467725000000001,0.0011130191370210126,8.364865550365003e-07,31.916,0.020752509888364065,3.118056401382421e-05,70.711,5.959627700899893,18.089999999999996,-0.01070920429394648
S017,11205.0,11234.984375,W,-2.158239583333333,159.6933533937807,-758.47,1175.56,1934.03,1.295,0.0,1296.875,1296.875,2.271192632125735,2.102122563228256,4.060845683466752,63.361802588879954,0.8801596566185118,70.48404074682438,0.065625,34,0.012029366666666664,0.006760225836875242,-4.293448647311374e-06,31.98166666666667,0.01714318782749859,1.4618059520958235e-05,58.631666666666675,1.697885122406369,5.579999999999998,-0.002771146585054955
S017,11235.0,11264.984375,N2,0.9774687500000001,41.845267965359874,-241.59,157.88,399.47,3.705,0.0,1296.875,1296.875,0.511473183762681,0.3800527649770051,0.45321000160582897,63.076818750284154,0.24861887257813498,63.96092557178953,0.11458333333333333,64,0.008144016666666667,0.0023837527940320396,2.5043422592074265e-06,31.990000000000002,0.01949358868961818,2.4513895538709328e-05,58.772333333333336,1.6564554191271057,5.0,0.0026528826640849247
S017,11265.0,11294.984375,W,0.2954687499999987,152.19307177100006,-787.72,528.11,1315.83,12.84,0.0,1296.875,1296.875,14.805003926917468,8.201143212991711,8.713008115264595,63.49188325164047,1.9166297225571158,78.26237921249263,0.05625,23,0.020013566666666663,0.01048703363185012,5.643352225301722e-07,32.013000000000005,0.025839246635044506,-1.927083856088355e-05,62.794333333333334,2.802392648355252,7.430000000000007,0.004583577632263899
S017,11295.0,11324.984375,N1,-0.6499791666666668,91.04951391333033,-575.46,325.05,900.51,3.11,0.0,1296.875,1296.875,8.661643112881675,15.563579244985087,6.151600048745222,63.05634810079099,3.1012574103427153,96.66954018717581,0.040625,20,0.031690883333333336,0.023349974333741544,5.350978448073581e-06,32.02633333333333,0.02272785857830712,3.170139748844208e-05,60.87466666666667,1.8533730211577906,5.449999999999996,7.416668678566723e-05
S017,11325.0,11354.984375,N2,1.0063437500000014,130.51652157416444,-511.44,497.16,1008.6,7.725,0.0,1296.875,1296.875,0.4699106002445808,0.25789403172082564,0.47014953110390545,62.41223723196854,0.34781752947874117,63.13477647065839,0.015625,13,0.043026425,0.003797819623728199,6.408958552777386e-06,32.100666666666676,0.0299925916778721,4.861112429772293e-05,59.48233333333334,3.641571715009271,9.100000000000001,-0.0063845503430312355
S017,11355.0,11384.984375,N2,-0.6849166666666665,88.08761492585884,-428.28,361.85,790.13,6.904999999999999,0.0,1296.875,1296.875,0.2715035777081645,0.2796249348085157,0.597215762238964,62.509492312372636,0.27733105864890606,63.56099432828282,0.023958333333333335,17,0.04796845,0.001584940944483422,2.0154627863126055e-06,32.19766666666666,0.02859875677173564,4.3368067319896614e-05,57.639333333333326,1.7841803595924812,5.850000000000001,0.0007856946575777614
S017,11385.0,11414.984375,W,1.121645833333333,71.08288778484523,-370.58,440.44,811.02,3.215,0.0,1296.875,1296.875,11.246072616943016,14.893921205944691,7.385215309314316,63.07646659172301,1.648859394626979,84.10112960002381,0.028125,11,0.0349356,0.014252517750909839,-2.10684909582495e-05,32.27,0.018618986725025367,2.7916674239549583e-05,58.56766666666667,4.311734131671643,12.11999999999999,0.007543925657531915
S017,11415.0,11444.984375,W,-0.6847499999999999,143.5540711327675,-631.51,676.75,1308.26,-2.0949999999999998,0.0,1296.875,1296.875,9.91207877064925,9.561282602245369,9.702375675575542,63.8155169448324,1.8457736581557693,76.3740793725201,0.034375,14,0.04637801666666667,0.015579741498702372,2.1336526621236602e-05,32.20433333333334,0.0847617576242703,-0.00013670142597152425,66.13866666666667,0.7016349161462497,2.260000000000005,-0.0003220834207040533
S017,11445.0,11474.984375,W,-2.647973958333333,116.90479988590675,-585.09,471.92,1057.01,0.33499999999999996,0.0,1296.875,1296.875,18.308390910573625,9.448588730231386,7.927208920928075,64.40209235036548,3.2525119874228423,83.82720322186587,0.08020833333333334,26,0.024848816666666666,0.021013824626494235,-1.9817441139713853e-05,32.15233333333334,0.07821693479604583,0.0001214236440493819,68.30199999999999,1.3181310000653699,4.200000000000003,-0.001406875381639372
S017,11475.0,11504.984375,W,-1.7827395833333342,107.90093764698642,-710.23,382.93,1093.16,0.8200000000000001,0.0,1296.875,1296.875,0.549620094486991,0.7747920587970686,0.61261956741113,63.32127367295608,0.43856824014787404,65.58200972827838,0.17395833333333333,94,0.018017425,0.0019618224803419396,1.967031132549677e-06,32.24333333333333,0.01659986613065281,1.9027782939395417e-05,71.84333333333333,2.9264920221240227,9.400000000000006,0.005260973649352659
S017,11505.0,11534.984375,W,4.403473958333333,119.87401610329778,-705.54,491.66,1197.2,7.21,0.0,1296.875,1296.875,0.6938899696137389,0.6021869504264343,0.6859760571927177,63.27560609576834,0.4817138291215793,65.70388116390082,0.19166666666666668,100,0.0197254,0.0014549363181940297,1.6690811819339136e-06,32.269999999999996,0.012649110640673249,7.361113107941149e-06,76.37033333333333,1.0748720337272206,3.030000000000001,-0.0016186462724192385
S017,11535.0,11564.984375,W,-0.24190104166666698,35.46795052668146,-142.24,172.59,314.83000000000004,1.885,0.0,1296.875,1296.875,0.5171998257175094,0.2803438334091827,0.43119967500245426,63.20911546218502,0.3878541239929084,64.66065264130884,0.11458333333333333,69,0.022938283333333333,0.0014971367015258017,1.290393579208328e-06,32.287333333333336,0.014360439485691639,1.1805558758017505e-05,70.14833333333333,2.5068587027504283,8.100000000000009,-0.004513369279885331
S017,11565.0,11594.984375,N1,0.1261718750000007,156.90494490853916,-917.35,785.46,1702.81,2.92,0.0,1296.875,1296.875,9.034647753290754,3.201935585400736,6.1826853286629335,63.872313944286404,1.579296700807926,76.4591394144611,0.042708333333333334,21,0.015509366666666665,0.006427237732148669,-5.582798823458884e-06,32.29600000000001,0.017999999999999523,-1.7986115990157404e-05,60.98233333333334,2.1562230610233457,7.399999999999999,-0.0036394107094755612
S017,11595.0,11624.984375,N2,-0.22904687500000004,32.79433282116443,-114.95,183.94,298.89,1.955,0.0,1296.875,1296.875,2.891812068570597,0.5410964546768801,1.4777281737706551,63.70278545902826,0.4506011847344513,67.63135367564367,0.22083333333333333,90,0.01666191666666667,0.0023989843357253415,3.15662542226167e-06,32.303333333333335,0.01577621275493207,1.1111114125192741e-05,53.542,1.7788318264149279,6.200000000000003,-0.0030873619486116396
S017,11625.0,11654.984375,W,0.3153124999999993,50.40398575309473,-208.71,516.05,724.76,1.37,0.0,1296.875,1296.875,0.9609424401408696,0.8500606340710186,0.5978985188883552,63.6985308229274,0.5451339290209491,72.86974680894672,0.09270833333333334,54,0.017088783333333336,0.0017693284845920754,1.4740147227687504e-06,32.32433333333333,0.010546194679703207,6.597224011831224e-07,52.15666666666667,0.5322676853697661,2.309999999999995,0.0008435418954920501
S017,11655.0,11684.984375,N2,-0.4483906250000004,165.58647976228664,-678.22,720.64,1398.8600000000001,-2.1950000000000003,0.0,1296.875,1296.875,10.046208289611753,13.038804223608743,11.22135067349292,63.59953867862799,3.6418763294536665,141.45317246354003,0.025,16,0.06535627499999999,0.029328174891209556,4.549015925839823e-05,32.30166666666667,0.023955978145107137,-3.4201398166611105e-05,58.416000000000004,2.4976717158185533,8.549999999999997,0.004497987331268263
S017,11685.0,11714.984375,W,0.36254166666666543,142.99077228858428,-745.53,451.93,1197.46,3.735,0.0,1296.875,1296.875,11.723426659423808,14.261981401553708,15.73683256902594,63.33781061028129,1.7229689771259833,82.15229759416349,0.052083333333333336,26,0.04113715833333333,0.03886374520638222,-6.124988922794305e-05,32.291333333333334,0.036672726771933895,4.611112361955364e-05,62.538999999999994,0.6472008961674881,2.1199999999999974,-0.0011223266933394888
S017,11715.0,11744.984375,W,3.462119791666667,109.47874410909361,-514.42,624.42,1138.84,4.62,0.0,1296.875,1296.875,28.6206143535079,3.292151862974867,7.4255985542506195,63.6704572593545,3.2323168756655947,112.80514172678478,0.06979166666666667,33,0.012274866666666667,0.015093594988125115,9.044465127079296e-06,32.32433333333333,0.015423647068345194,-1.121528082011683e-05,58.07066666666666,2.4848754943099713,6.899999999999999,-0.00440611230634557
S017,11745.0,11774.984375,N1,-3.552192708333332,182.57348076024292,-841.25,736.03,1577.28,-5.55,0.0,1296.875,1296.875,0.6758281635129022,0.5845142436602094,0.658198166503743,63.765976579152934,0.4085309946485534,65.87108622149782,0.08854166666666667,56,0.037625533333333336,0.004573814066570214,7.945712224856831e-06,32.28066666666667,0.012364824660659628,8.333335593899551e-07,61.05533333333333,5.173601410580018,16.379999999999995,0.00917548860012169
S017,11775.0,11804.984375,W,3.014510416666668,179.08066081863635,-694.16,641.93,1336.09,0.76,0.0,1296.875,1296.875,0.5785180720791895,0.5432309144267187,0.7692770043196403,63.73620176596757,0.3949170139074812,65.13063795173512,0.11041666666666666,71,0.04994311666666666,0.003060222740213892,5.070322121940678e-06,32.29466666666667,0.016878651868229268,1.145833644160658e-05,81.58500000000001,5.765559094022598,17.570000000000007,0.010336981970752487
S017,11805.0,11834.984375,W,-1.9968020833333335,170.16884764900416,-556.23,516.06,1072.29,3.7,0.0,1296.875,1296.875,33.076504332968575,38.100083715436426,10.180582976837028,64.32100632414686,7.725351908859908,133.30041260251224,0.07604166666666666,29,0.06217541666666667,0.03502961906672298,3.329294132295501e-05,32.31766666666667,0.02027861489900657,9.201391384926413e-06,88.47866666666665,1.3348051876168625,4.810000000000002,-0.001708542130138381
S017,11835.0,11864.984375,W,-1.5504166666666668,108.82298156837349,-702.83,702.2,1405.0300000000002,-1.02,0.0,1296.875,1296.875,9.290025488001007,12.946894066617762,6.858350736612184,64.67709645283556,3.00576991200936,85.98837130682264,0.078125,33,0.0948696,0.03179755442362405,-3.834382984587396e-06,32.361666666666665,0.02933522721158818,4.593751246134668e-05,83.12233333333333,0.678712915909386,2.4799999999999898,0.00019100699625840883
S017,11865.0,11894.984375,W,0.4878124999999997,235.85866768002862,-1177.81,1041.53,2219.34,-2.0549999999999997,0.0,1296.875,1296.875,5.072673248780064,5.215408111627827,6.371071774478416,64.74487558263112,1.4190087348623854,79.23383115816122,0.06770833333333333,29,0.13281535,0.019940556363288866,9.484024708123023e-06,32.43266666666666,0.027194770739162356,4.3888900794516545e-05,85.55666666666666,0.6630401362076227,1.8400000000000034,-0.0007445835353145433
S017,11895.0,11924.984375,W,1.179104166666666,129.57648213197285,-555.29,597.84,1153.13,-0.75,0.0,1296.875,1296.875,2.9817471341852952,3.3051090238783685,3.461664434881323,64.62372679666238,1.2504072311353551,85.11169132381285,0.057291666666666664,26,0.14067136666666666,0.006280685360602683,5.0190247989976076e-06,32.49433333333334,0.02139833846093876,2.8368063250885737e-05,77.22466666666666,3.643832902620841,11.680000000000007,-0.006447223971143656
S017,11925.0,11954.984375,W,-1.1616614583333333,205.4022266726515,-781.56,645.53,1427.09,1.49,0.0,1296.875,1296.875,5.1227124806807405,5.988090031238861,6.936467328046429,64.6848143600042,2.0630175015722183,87.41281370600079,0.071875,32,0.14153601666666665,0.011045837800564917,-1.5091515378557766e-05,32.57066666666667,0.027071920672329657,4.479167881718803e-05,71.131,0.5231784271801213,2.0999999999999943,-9.732641529036829e-05
S017,11955.0,11984.984375,W,-1.083963541666667,112.40867589852256,-649.04,433.11,1082.15,0.645,0.0,1296.875,1296.875,9.163991974839925,12.424387804893604,5.625271598381322,64.56945005260691,2.898576358128413,97.3139250056229,0.075,31,0.12355037499999999,0.016546607545587958,1.2936423431104442e-05,32.632666666666665,0.0414675241068897,6.583335119177108e-05,79.37133333333334,3.3643362231236975,13.280000000000001,0.0058431960295128125
S017,11985.0,12014.984375,W,2.7917708333333326,180.74555603599217,-706.21,662.03,1368.24,-0.06,0.0,1296.875,1296.875,2.912019363059479,1.4775486308738612,2.6480533255451175,64.37346717434282,0.8638907842661968,74.69270379361026,0.029166666666666667,14,0.12925030833333334,0.03183885878602745,-3.152857691204885e-05,32.71933333333333,0.015040685563570032,7.430557571222536e-06,86.57433333333331,1.2207202336689957,4.069999999999993,-0.0015670490362003683
S017,12015.0,12044.984375,W,-1.5918020833333295,262.13643079964584,-1569.31,1160.86,2730.17,9.06,0.0,1296.875,1296.875,15.083126005711371,7.777827993079466,9.569230962130511,64.79879170714534,4.155810385551525,105.0,0.1125,55,0.12121280833333334,0.03329348371535984,2.4712322024826926e-05,32.694999999999986,0.025527762664728584,-2.961806358997111e-05,80.16600000000001,1.9172873198002087,7.920000000000002,-0.0023434034134666394
S017,12045.0,12074.984375,W,-0.4029687499999992,276.9899388791027,-1216.77,1859.38,3076.15,3.245,0.0,1296.875,1296.875,15.220578368096758,9.676909477717077,11.208956331431155,64.85631421665661,4.486921501835894,98.96464014990404,0.07083333333333333,30,0.12980529166666666,0.020475541398375704,5.402913575009114e-06,32.69866666666667,0.027047283700134143,3.7083343392833615e-05,75.10566666666668,0.718385612946759,2.0,0.001111215579214298
S017,12075.0,12104.984375,W,2.925583333333334,134.24318922618775,-563.65,454.79,1018.44,2.77,0.0,1296.875,1296.875,25.471454270199985,12.64658628833346,17.26508621582674,66.02678764330564,12.685571732188093,135.2848845954344,0.12291666666666666,39,0.12294204166666667,0.015980002739046404,-1.066933948278523e-05,32.763999999999996,0.017243356208504684,2.1736117007412277e-05,76.95433333333334,0.7473851453939636,2.519999999999996,-0.0007785071556280263
S017,12105.0,12134.984375,W,-3.4788177083333336,94.19033076540254,-614.5,456.39,1070.8899999999999,-0.18,0.0,1296.875,1296.875,12.243997209446373,5.760035682850266,10.872943960734089,64.57857671710599,5.888382986258267,134.30189872075525,0.028125,9,0.12598413333333333,0.023899861248876643,-9.3479717198274e-06,32.79133333333334,0.011469767022723534,3.3333342375586368e-06,72.20233333333334,3.4569607878726205,10.14,-0.006189133623354389
S017,12135.0,12164.984375,W,0.9257760416666663,174.68939542061102,-963.27,485.61,1448.88,3.9699999999999998,0.0,1296.875,1296.875,31.043498949698478,17.116052888825024,19.68635303096341,66.62187361266567,14.663869930478844,174.41043546760613,0.09791666666666667,46,0.10077230833333332,0.024870674980384644,7.3597213974938715e-06,32.82066666666667,0.02351358945139821,3.555556520062131e-05,65.33866666666667,0.40523025004996166,1.3999999999999915,-0.00026875007290312223
S017,12165.0,12194.984375,W,-0.0937135416666667,115.75664374656871,-411.34,659.8,1071.1399999999999,-6.35,0.0,1296.875,1296.875,20.999725527306833,7.722325139202283,11.915894451596877,64.80292396544488,4.776330934455526,111.22949249187465,0.07916666666666666,44,0.1315346,0.03313211025510851,2.0111546254217194e-06,32.882666666666665,0.024890872936791975,1.6944449040920996e-05,70.99,3.156997518740446,10.530000000000001,0.005681945985770938
S017,12195.0,12224.984375,W,-0.0019322916666667449,98.57248329626951,-414.12,453.35,867.47,-1.685,0.0,1296.875,1296.875,5.307676629806795,2.2763264981959175,6.071517849191878,64.68009887821047,1.0490157791547638,71.19691004531025,0.09479166666666666,46,0.1315879,0.01154055667735891,-1.0688512014027781e-05,32.949666666666666,0.03331499495555932,5.6215293027153164e-05,76.94366666666666,0.38264416310137805,1.1199999999999903,0.0004899654106893985
S017,12225.0,12254.984375,W,0.17541666666666608,66.3420264608382,-513.97,296.99,810.96,1.67,0.0,1296.875,1296.875,6.070568800001821,1.988506198391563,6.3056467198500386,64.53976773668606,1.810457261196535,78.82258559575422,0.059375,31,0.08234911666666665,0.010211406445068617,8.694599580783308e-06,33.019,0.022263572639328086,2.73263963016475e-05,72.34266666666666,1.9983525436941523,8.069999999999993,-0.003544167628083666
S017,12255.0,12284.984375,W,-0.06650000000000003,28.35504825607191,-78.59,188.43,267.02,-2.62,0.0,1296.875,1296.875,0.9319133310545686,0.6629707119704125,0.8598666522910527,64.56735021039201,0.6527149520208421,67.65352910233139,0.11770833333333333,56,0.10574641666666666,0.009478679334505883,1.3481677702278017e-05,33.07866666666667,0.024046251729162242,3.4652787177948834e-05,63.72166666666667,2.8349909856803577,8.849999999999994,-0.005084758323773416
S017,12285.0,12314.984375,W,0.37370833333333403,119.55114543922863,-757.44,514.72,1272.16,3.885,0.0,1296.875,1296.875,44.337274603552636,16.844826386705915,31.586120682164562,63.80102482145737,8.199597453439326,143.98958295654586,0.052083333333333336,23,0.082797425,0.040844709506385794,-6.377965987946502e-05,33.13433333333333,0.015423647068344431,5.034723587978289e-06,59.54966666666666,1.199542922209215,4.329999999999998,0.001586771263772588
S017,12315.0,12344.984375,W,0.025562499999999842,30.80783910144073,-92.23,60.31,152.54000000000002,2.315,0.0,1296.875,1296.875,0.5591091857564336,0.47495887979908324,0.9471946655123223,62.06692277277159,0.3835329435742227,63.796551630946325,0.28854166666666664,115,0.023077116666666668,0.003444776067185726,-4.201086209062014e-06,33.163666666666664,0.016428295373802332,1.9201394097601237e-05,65.04666666666667,0.9229710480592315,3.430000000000007,0.0008379168939661722
S017,12345.0,12374.984375,W,-0.5053645833333336,26.86337073531377,-56.29,50.75,107.03999999999999,1.1549999999999998,0.0,1296.875,1296.875,0.26377830285214054,1.230524938091012,0.6157333872437539,61.83010259466616,0.28113721393189073,62.75348595894893,0.20416666666666666,68,0.021251924999999998,0.0011982182269415702,9.034833180022031e-08,33.203,0.023544284515213166,2.9618063589968174e-05,60.231666666666676,2.750608518532258,8.950000000000003,-0.004925383280540171
S017,12375.0,12404.984375,W,-0.01740624999999989,19.470677781537574,-48.84,52.65,101.49000000000001,1.3,0.0,1296.875,1296.875,0.3508360550171547,0.5063785844931965,0.8624471602171733,61.77960298565937,0.3345219489166074,63.592452382338585,0.090625,39,0.019928225000000004,0.0011312982031166665,5.921290668752894e-08,33.24666666666667,0.01639783183500049,2.45138955387122e-05,52.43233333333334,0.9802641934136375,3.3299999999999983,-0.0015330906936552443
S017,12405.0,12434.984375,W,0.25509895833333346,18.89314942232697,-77.44,54.11,131.55,2.8499999999999996,0.0,1296.875,1296.875,0.44251098542547196,0.25632409159217856,1.2884700869366565,61.85209423665924,0.3190170414826408,63.03967004989794,0.1375,62,0.020397933333333337,0.0011943639850936932,3.7168109040828167e-07,33.272000000000006,0.014922019523732403,1.451389282603385e-05,52.499,0.5502444911128143,1.5799999999999983,0.0009460072010653207
S017,12435.0,12464.984375,W,-0.20253645833333334,13.655307281485678,-35.19,26.07,61.26,1.59,0.0,1296.875,1296.875,0.1821904480893551,0.17950549357115014,0.5227464862520731,61.56993276708545,0.21564799228776443,62.617888817813075,0.042708333333333334,27,0.020899650000000002,0.0011335623615399374,3.569454093276389e-07,33.27733333333333,0.009637888196532057,-4.861112429771289e-07,52.01833333333334,0.7027900745520596,2.0899999999999963,-0.0009114238583506562
S017,12465.0,12494.984375,W,-0.43663020833333327,18.904814930349204,-53.52,59.99,113.51,1.13,0.0,1296.875,1296.875,0.44405310461950637,0.29130185518347346,1.0395311443145896,61.68770360616373,0.4209795696873843,63.96092557178953,0.18333333333333332,96,0.0207502,0.0012441757150820777,-4.831550789808698e-07,33.278666666666666,0.009910712498210366,-5.625001525878202e-06,53.035,0.9515347252377786,2.9299999999999997,0.0015795490395912122
S017,12495.0,12524.984375,W,0.2901145833333333,26.092323347973515,-72.38,54.87,127.25,5.255,0.0,1296.875,1296.875,0.3064625113016816,0.57312496213498,0.6550675524431727,61.71842958733785,0.30793550106944,63.26926584053272,0.08229166666666667,39,0.01993889166666667,0.001256541223596433,3.3413702640435813e-07,33.26266666666666,0.013148721948878415,-2.8472229945802995e-06,56.37733333333333,0.6965435297875427,2.1799999999999997,0.0010286113901398085
S017,12525.0,12554.984375,W,0.19156770833333325,28.973779827461367,-63.19,57.66,120.85,1.84,0.0,1296.875,1296.875,0.4860008555519447,0.4444097208657794,0.547079326908407,61.73679980695853,0.3857455061637588,62.617888817813075,0.13125,81,0.019469200000000002,0.001221996117015107,-6.015808923559276e-07,33.248000000000005,0.013012814197297457,-4.375001186795711e-06,54.55366666666667,1.4522453496415666,4.199999999999996,-0.0025739937537960487
S017,12555.0,12584.984375,N1,0.08725520833333324,26.632629496021767,-131.76,75.67,207.43,1.38,0.0,1296.875,1296.875,0.5230618988226919,0.4244277192748948,1.205887881022619,62.017377499618924,0.3874227704878132,66.1362230551458,0.13020833333333334,69,0.018967475,0.001251800223428243,-1.6957686891733643e-08,33.238,0.012220201853216399,-8.333335593895704e-06,51.457333333333324,0.32120536871118566,1.0,-0.0004835417978357734
S017,12585.0,12614.984375,N1,-0.03073958333333359,23.586026953979548,-57.46,53.38,110.84,1.4249999999999998,0.0,1296.875,1296.875,0.2318404623873926,0.33721052400540524,0.5798921939440315,62.261497224439246,0.23875727802529925,63.4428877022476,0.028125,17,0.018764650000000004,0.0010543960724035345,9.173830613560832e-08,33.21933333333333,0.015040685563570032,-1.7777782600308213e-05,51.10800000000001,0.2688047618625825,0.8499999999999943,-0.00042034733624873345
S017,12615.0,12644.984375,N2,0.07103645833333344,20.432506031513547,-46.22,38.44,84.66,1.95,0.0,1296.875,1296.875,0.0,0.4353917456983104,0.49495720914932523,62.0981591537404,0.13649072029491802,62.24949798994366,0.4,128,0.018540483333333337,0.0013930838870609653,-7.65300554823284e-07,33.193666666666665,0.022133433734712698,-2.7048618448519097e-05,48.70533333333333,1.1318590410863398,3.1199999999999974,-0.001968889422984327
S017,12645.0,12674.984375,N2,-0.2788020833333333,20.365392170358408,-49.59,44.79,94.38,1.1150000000000002,0.0,1296.875,1296.875,0.08533405557962581,0.10703853634971328,0.49264997011626377,61.950581602283386,0.13852486717033358,63.198101237299845,0.022916666666666665,13,0.018519125,0.0011203665513460318,6.302143636649205e-07,33.17066666666666,0.015477582354993052,-7.63889096107116e-06,52.513,3.0076227046179405,8.029999999999994,0.0047124665561161455
S017,12675.0,12704.984375,N2,0.16834374999999993,19.03546878435541,-46.81,44.48,91.28999999999999,-0.48,0.0,1296.875,1296.875,0.13615185047912087,0.22296290408321792,0.270022825681254,61.818867872167324,0.16289056709713373,63.182275995725256,0.07291666666666667,31,0.019095575,0.0011924983204914794,-8.025711812530328e-07,33.14999999999999,0.011832159566197478,-1.0972225198626936e-05,54.61866666666667,0.25405686152688106,0.7199999999999989,0.0004437501203749238
S017,12705.0,12734.984375,N2,-0.08423958333333322,21.728199072693528,-56.65,53.65,110.3,0.655,0.0,1296.875,1296.875,0.33993463423951903,0.3391164991562634,0.4871793817476269,61.85283402942162,0.31597340946189884,62.96824596572466,0.13541666666666666,73,0.019042200000000002,0.0011329590283854043,1.1397789550181602e-07,33.11333333333334,0.01556349003990495,-1.8541671696417224e-05,49.440666666666665,2.985575247009453,8.060000000000002,-0.004650487372636549
S017,12735.0,12764.984375,N2,0.03018750000000002,18.553320049540382,-45.71,50.39,96.1,-0.735,0.0,1296.875,1296.875,0.5100285514202992,0.42695119907184814,0.5018023072441532,62.129282452047846,0.5053582824678511,64.389440128021,0.010416666666666666,4,0.019896191666666667,0.0011802201298616092,8.895249808824272e-08,33.07933333333334,0.01842703328144807,-1.861111615970066e-05,47.03666666666666,0.45877614972397596,1.2700000000000031,-0.0007679168749774514
S017,12765.0,12794.984375,N2,-0.1341406250000001,20.05309964327563,-50.68,49.21,99.89,-0.225,0.0,1296.875,1296.875,0.29860606423383673,0.4996863165332382,0.3960402419753438,62.21384705306668,0.2900169954099242,62.55397669213365,0.09895833333333333,59,0.019437175000000004,0.001028296768630048,3.427676711066813e-07,33.038666666666664,0.011175369742825248,-1.3958337119772349e-05,47.70733333333333,0.2729827019346745,1.0999999999999943,-3.0833341697413854e-05
S017,12795.0,12824.984375,N2,0.3258489583333333,19.220762515444154,-51.38,62.79,114.17,-0.38,0.0,1296.875,1296.875,3.8933836716833543,2.9280847930952336,3.9843966502679757,62.19466416572265,0.9820256172698467,76.43951857514541,0.016666666666666666,4,0.03298241666666667,0.03430324368398789,3.455224504997967e-05,32.998666666666665,0.018749814813900766,-2.4513895538708674e-05,47.983333333333334,0.8140980011985994,2.25,0.0012351392239418457
S017,12825.0,12854.984375,N2,0.10569270833333283,112.47352791990355,-917.7,388.42,1306.1200000000001,4.355,0.0,1296.875,1296.875,6.3715510141871174,9.160538612163073,7.5509369819616134,62.27826532747114,2.271187531029939,80.9814793641114,0.05625,22,0.071280325,0.010180892834261067,-8.679181390836963e-06,32.97533333333334,0.016069294390925176,-1.1458336441607073e-05,48.88433333333332,0.5400042180905209,1.4199999999999946,0.0008313543921859778
S017,12855.0,12884.984375,N2,-0.17496354166666667,21.54175885051336,-53.75,48.24,101.99000000000001,1.5,0.0,1296.875,1296.875,0.28103965899950056,0.285583892616902,0.6653600476851278,61.968976983354466,0.20680095861740524,62.625873247404705,0.21666666666666667,66,0.06965804166666664,0.0012829338213370758,1.2298395263236548e-06,32.96600000000001,0.013063945294842975,-5.13889028290275e-06,49.379,0.3511538124526068,1.1000000000000014,0.0002729514629317141
S017,12885.0,12914.984375,N2,-0.24256770833333333,21.637916725733803,-115.58,61.52,177.1,0.125,0.0,1296.875,1296.875,0.032258047015004204,0.3736070773739289,0.3110731313623141,61.914528729073325,0.13496514397600917,63.182275995725256,0.08541666666666667,23,0.07225158333333333,0.0011747454943045706,7.594728622702004e-07,32.96,0.018439088914585573,5.34722367274997e-06,48.434,0.3863124814620068,1.259999999999998,0.00021131950176852778
S017,12915.0,12944.984375,N2,0.16853645833333258,150.88733074747407,-653.78,1062.45,1716.23,1.105,0.0,1296.875,1296.875,5.43450228670176,9.182849352037865,6.563961146860941,62.021675172191024,2.6250667614159613,85.57452892070164,0.053125,22,0.07915757500000001,0.013199353960618996,3.094370414054472e-06,32.961333333333336,0.01231079020841163,-1.7361115820611226e-06,49.93299999999999,1.836495122055415,5.68,0.002271007560494673
S017,12945.0,12974.984375,N2,0.024781250000000022,20.252378020197572,-88.05,41.05,129.1,2.04,0.0,1296.875,1296.875,0.33306629928922893,0.1161399942478425,0.3003452151506477,62.303235683011415,0.3171331378686439,62.81719509815764,0.005208333333333333,5,0.077706,0.001444876136559808,1.1214312937910403e-06,32.964000000000006,0.014742229591663271,5.208334746184284e-06,51.996,1.2172745513372623,3.1499999999999986,-0.002122570020228412
S017,12975.0,13004.984375,N2,-0.03764583333333339,17.08959157156482,-60.28,60.34,120.62,1.355,0.0,1296.875,1296.875,0.21566273824345894,0.27144162458170545,0.8862349160289775,61.902405032260646,0.30713930925147054,63.387695966961914,0.18645833333333334,57,0.078869575,0.0010415102468891038,-4.2727811069827233e-07,32.964666666666666,0.013597385369579818,-8.333335593896595e-07,50.590333333333334,1.841348207760342,5.530000000000001,-0.0022871186759762024
S017,13005.0,13034.984375,N2,0.08231250000000001,16.152199978068325,-44.2,38.4,82.6,0.915,0.0,1296.875,1296.875,0.22055554462286567,0.41268409191804595,0.5726362950327973,61.73309280983522,0.29090742904144146,63.35613624582863,0.17708333333333334,54,0.07962749166666667,0.0011256669430152176,7.683558941937655e-07,32.964000000000006,0.01280624847486474,-4.861112429774484e-07,48.58433333333333,0.9036765030818398,2.5799999999999983,0.0014212851077704822
S017,13035.0,13064.984375,N2,0.11223437500000007,14.509580044938758,-39.58,38.44,78.02,0.66,0.0,1296.875,1296.875,0.3660254217605657,0.3914435867366104,0.6108813291171117,61.698835505223855,0.3659311856918071,62.65780079128216,0.21354166666666666,124,0.07949939166666667,0.0010936249913005953,-2.2185748205769422e-07,32.97200000000001,0.0119443152447794,-3.472223164114214e-07,50.57966666666666,0.5147911118977182,2.3400000000000034,0.0008306599475531546
S017,13065.0,13094.984375,N2,-0.28286979166666665,14.938568352440798,-37.79,37.54,75.33,-0.20500000000000002,0.0,1296.875,1296.875,0.46393241957267395,0.48812282152024905,0.5675229054971164,61.725324990630924,0.4316690101532669,63.0,0.31354166666666666,150,0.07850662500000001,0.001274534202905124,-4.828770841137918e-07,32.96866666666667,0.010241527663824255,-4.02777887038244e-06,50.24366666666666,0.655146209296486,1.8499999999999943,-0.0008384377274407895
S017,13095.0,13124.984375,N2,0.024927083333333357,13.250427367121025,-35.52,34.1,69.62,0.125,0.0,1296.875,1296.875,0.4175823272122516,0.4357106264483344,0.5634097581295123,61.98882744680176,0.3649499106771307,62.65780079128216,0.013541666666666667,8,0.07716157500000001,0.0011809753995638502,-7.352964234202517e-07,32.95466666666667,0.01606929439092493,-4.791667966490096e-06,48.62,0.7932717062898429,3.0,-0.0002618750710381593
S017,13125.0,13154.984375,N2,0.07955729166666661,22.09705224877878,-200.26,98.55,298.81,1.01,0.0,1296.875,1296.875,0.36795317627458474,0.3233515217178083,0.5132098319374077,61.98716511728266,0.3270867205108816,62.8410693734599,0.28229166666666666,164,0.07805827500000001,0.0012185876043087742,7.892274276333075e-07,32.93866666666667,0.015216949614018685,-1.0902780735346485e-05,49.11366666666666,0.4103858617880917,1.0999999999999943,0.0005221181971891796
S017,13155.0,13184.984375,N2,0.1043958333333333,17.667653522444606,-49.98,48.49,98.47,0.65,0.0,1296.875,1296.875,0.40336986533935437,0.4135705279601319,0.668681038760052,62.056319579553325,0.347119441997996,64.10148204214939,0.0125,7,0.07815435,0.0011091730827512889,-1.9570838642263063e-07,32.91933333333333,0.013399834161495577,-1.1944447684584324e-05,47.82633333333333,1.070232010152731,3.3400000000000034,-0.001906076905945341
S017,13185.0,13214.984375,N2,-0.019541666666666836,17.131606730395447,-60.74,46.61,107.35,1.295,0.0,1296.875,1296.875,0.40232478717449166,0.5032436023079567,0.3065952560651692,62.04304107758522,0.375848611020026,63.0,0.008333333333333333,6,0.07823975000000001,0.0013290267820852963,8.979234206606499e-07,32.911333333333324,0.013597385369580656,-8.472224520460152e-06,47.836666666666666,0.451850516087886,1.7000000000000028,0.00013763892622583752
S017,13215.0,13244.984375,N2,-0.04857812499999999,16.22504205853372,-44.09,38.59,82.68,0.055,0.0,1296.875,1296.875,0.4968815513194937,0.4618050334165803,0.699094155953895,61.981977677620144,0.38197055427344045,63.0,0.026041666666666668,15,0.07849595,0.0013040988258180436,-5.893491182045125e-07,32.901999999999994,0.01599999999999942,-1.5416670848705735e-05,47.72166666666667,0.5482522736437637,2.0400000000000063,-0.0001259375341627425
S017,13245.0,13274.984375,N2,-0.03248437500000006,15.99149200632316,-53.92,37.72,91.64,-0.07,0.0,1296.875,1296.875,0.44492581895749767,0.5123094157830793,0.39286027122672174,62.02017423281724,0.3873905836812595,63.182275995725256,0.015625,11,0.07819705,0.0013317677528383086,1.1614625546502148e-06,32.892333333333326,0.0185622077231005,-1.4756948447522782e-05,45.599666666666664,0.34403956490819765,1.1999999999999957,-0.0005835071027308759
S017,13275.0,13304.984375,N2,0.17534375,82.54611968776507,-1033.83,428.11,1461.94,1.13,0.0,1296.875,1296.875,6.274269199919267,7.595495912692089,4.856051918418397,62.09395188562634,2.1642198499354506,75.24626236564843,0.05,13,0.0855727,0.013968013465653113,1.569586710499867e-05,32.87466666666666,0.020773915267843245,-1.9652783108935606e-05,46.31833333333334,0.6822466969913122,2.6599999999999966,0.0011653128161113319
S017,13305.0,13334.984375,N2,0.27909375,50.68608966915424,-210.14,189.73,399.87,-0.79,0.0,1296.875,1296.875,0.29788024252858547,0.3678116002301842,0.25514667622543874,62.24520096096356,0.2932558540388118,63.13477647065839,0.04479166666666667,26,0.10721938333333333,0.0023175844903093007,3.6147418659781532e-06,32.85600000000001,0.0174355957741605,-4.027778870381354e-06,52.23766666666667,3.449601603406141,10.969999999999999,0.0061444113890004835
S017,13335.0,13364.984375,N2,-1.3052343750000004,82.46595812027572,-423.51,326.53,750.04,-6.18,0.0,1296.875,1296.875,0.26339134382131846,0.19011772211945127,0.563825598528087,62.27082141073224,0.22823781316481806,62.76941930590086,0.022916666666666665,11,0.11168115000000002,0.0013256678797873918,1.1936648203300821e-06,32.841,0.013747727084867059,-9.375002543139219e-07,67.466,5.117217733625699,17.020000000000003,0.009191738604529785
S017,13365.0,13394.984375,N2,1.9338906250000012,161.45926474597533,-779.73,674.88,1454.6100000000001,2.8200000000000003,0.0,1296.875,1296.875,0.20012745504774923,0.22185054638327026,0.5185355564123726,62.134960843328685,0.2086048849149737,63.31666447310692,0.071875,23,0.11382627499999999,0.0013013287245638612,1.2058764121843584e-06,32.84,0.013416407864998188,-1.4236114972904777e-05,81.23866666666667,2.15711340040857,7.650000000000006,0.00387104271675421
S017,13395.0,13424.984375,N2,-1.4180572916666667,193.34019295425995,-781.96,914.09,1696.0500000000002,-1.1,0.0,1296.875,1296.875,6.890963474302172,10.567895513374326,6.68740191711562,62.08774013810894,2.200384332184384,83.60023923410746,0.040625,16,0.11727409166666665,0.004314575844344055,3.3779805170302966e-07,32.839333333333336,0.013646326326972056,6.180557232139849e-06,85.885,0.7327971524689953,3.019999999999996,-0.0001240625336541165
S017,13425.0,13454.984375,N2,0.387744791666667,44.106140158186804,-262.93,230.58,493.51,-0.37,0.0,1296.875,1296.875,0.07210109366946754,0.1592592172022985,0.4085020378536141,61.911622361331005,0.12900227881426818,63.324560795950255,0.18958333333333333,58,0.117210175,0.001157585501971669,6.291023841966102e-07,32.83733333333333,0.013399834161494246,-1.3125003560385946e-05,86.94233333333332,2.2462556745739235,6.799999999999997,0.0027556604697429664
S017,13455.0,13484.984375,N2,0.002536458333333336,39.21474187584684,-294.81,165.01,459.82,-1.585,0.0,1296.875,1296.875,0.03225804701500421,0.16532992583014122,0.30138388852738773,61.88423245978448,0.08601083279089236,63.06346010171025,0.09270833333333334,27,0.11830969999999999,0.0011329590283854054,4.353399618435221e-07,32.827333333333335,0.013148721948877683,-8.333335593896271e-06,84.679,0.5326684397133625,2.0,-0.0008547571763121713
S017,13485.0,13514.984375,N2,-0.054213541666667336,66.1817103488115,-460.92,385.13,846.05,-1.4649999999999999,0.0,1296.875,1296.875,0.5618196116563275,0.4950755764415054,2.9326775944968597,61.91568896610996,0.2613296486491563,65.39113089708727,0.06145833333333333,16,0.11389071666666666,0.005011772921803444,-7.974894958467601e-06,32.80533333333333,0.015216949614017513,-2.84722299458104e-06,76.969,4.561285162466094,12.439999999999998,-0.007751981269526169
S017,13515.0,13544.984375,N2,0.0650364583333334,17.403319247545973,-118.13,80.01,198.14,0.28,0.0,1296.875,1296.875,0.0853340555796258,0.27638539919628335,0.4941838371806139,61.832495607369154,0.12411136668542633,63.13477647065839,0.10520833333333333,48,0.10617323333333335,0.0020905041845343335,-2.4443869478046203e-06,32.796666666666674,0.01299572579307907,-8.61111344702591e-06,62.50599999999999,4.770331644655328,15.900000000000006,-0.00853944676091763
S017,13545.0,13574.984375,N2,0.011515624999999993,11.986842745484076,-29.74,29.89,59.629999999999995,-0.05,0.0,1296.875,1296.875,0.06441510347391795,0.12401959270615269,0.2605749518959095,61.81298338125794,0.07827627351495388,62.78534860936905,0.027083333333333334,18,0.10543665,0.0010587103133057707,6.727475783277843e-08,32.77066666666666,0.01824524291120567,-1.909722740267747e-05,51.57633333333333,1.595461235992763,6.049999999999997,-0.0027274660176502866
S017,13575.0,13604.984375,N2,-0.0007499999999999988,19.034202118051425,-93.89,65.67,159.56,-0.24,0.0,1296.875,1296.875,0.1288302069478359,0.4299938932867406,0.5740471800562699,61.85357219798583,0.1587125763351392,63.33245613427605,0.040625,15,0.10432646666666669,0.0012247478307345105,6.14385149301528e-07,32.74666666666666,0.012736648783029719,-1.0208336102522708e-05,52.06666666666667,1.9896001831747223,5.060000000000002,0.0034296537081308885
S017,13605.0,13634.984375,N2,-0.03184375000000005,22.133657351337565,-120.5,149.71,270.21000000000004,-0.005,0.0,1296.875,1296.875,0.19080137559922242,0.4041398186959008,0.9248445580729889,61.8295038654684,0.26211018680714837,64.10148204214939,0.10729166666666666,23,0.10161556666666667,0.0016395102049765419,-7.009355200020385e-07,32.72566666666667,0.020765890836229678,-2.6770840595388987e-05,54.084666666666664,0.805165545434947,3.3500000000000014,6.125001661513037e-05
S017,13635.0,13664.984375,N2,-0.01931770833333341,12.263306229998829,-36.31,32.38,68.69,0.095,0.0,1296.875,1296.875,0.10152910775842672,0.09090593428863095,0.3443744328488978,61.69320131373281,0.11616796706453637,62.78534860936905,0.14895833333333333,72,0.10195706666666667,0.0011381595797114257,2.7617889436276387e-07,32.68566666666666,0.020925794820960145,-2.593750703600034e-05,54.38766666666667,2.2147621141382707,5.619999999999997,-0.0037009385039438215
S017,13665.0,13694.984375,N2,0.07902083333333328,12.127834397213405,-26.78,41.72,68.5,-0.11,0.0,1296.875,1296.875,0.12401959270615269,0.11987768650679835,0.3763632627602693,61.70455835607306,0.13911535492905905,62.78534860936905,0.030208333333333334,23,0.1022452,0.001188264537045517,8.92840085948373e-07,32.65333333333332,0.007888106377464585,-5.000001356336177e-06,52.092666666666666,1.3625562577580261,4.540000000000006,-0.00213770891322399
S017,13695.0,13724.984375,N2,-0.1276302083333333,17.032359250076624,-76.84,85.04,161.88,-0.08499999999999999,0.0,1296.875,1296.875,0.1476045709827443,0.14963787306546278,0.573843001116643,61.730430479389284,0.18198762582782801,63.13477647065839,0.053125,20,0.10257599166666666,0.0010401377432487254,-3.218253911201683e-07,32.626000000000005,0.014966629547095827,-1.4166670509621443e-05,49.405,1.2326198386634324,3.3200000000000003,0.002137604746529065
S017,13725.0,13754.984375,N2,0.055031250000000115,12.891882470952671,-29.04,37.85,66.89,-0.22499999999999998,0.0,1296.875,1296.875,0.04559597630883185,0.05581428468591172,0.44385146531682074,61.70448409328911,0.08150325780547879,62.63385665915839,0.27291666666666664,118,0.10273608333333333,0.0011442076194418931,8.057393678763449e-07,32.60000000000001,0.016124515496596534,-1.9236116329240264e-05,50.986666666666665,0.07077350414448041,0.19999999999999574,8.986113548750328e-05
S017,13755.0,13784.984375,N2,-0.032312499999999876,21.50645459958499,-107.09,135.66,242.75,-0.85,0.0,1296.875,1296.875,0.20171788261496962,0.33307118598064817,1.0428321604796025,61.78152317942093,0.15698289930584863,62.63385665915839,0.0875,17,0.09813584166666667,0.0031120008836648108,-3.308932538230398e-06,32.574000000000005,0.016653327995730643,-2.152778361756506e-05,49.42333333333334,1.1114265107909247,3.219999999999999,-0.0019850005384658585
S017,13785.0,13814.984375,N2,-0.08227083333333327,17.34379045789826,-92.96,52.2,145.16,0.6,0.0,1296.875,1296.875,0.06441510347391795,0.194978186101819,0.495674650728681,61.75881459878368,0.10137892481750874,62.78534860936905,0.020833333333333332,19,0.098338775,0.0013980174978786924,1.5114580923009155e-06,32.550000000000004,0.010327955589886226,-3.7500010172525783e-06,47.272000000000006,0.25700064850761245,0.8700000000000045,-0.00027805563098297315
S017,13815.0,13844.984375,N2,-0.05376562500000013,11.697806014789771,-26.42,41.47,67.89,-0.575,0.0,1296.875,1296.875,0.05581428468591173,0.23239907830544904,0.3146988612370386,61.69121698567895,0.0853726686115143,62.63385665915839,0.16041666666666668,92,0.09998266666666668,0.001325939826018594,6.246642319510164e-07,32.51499999999999,0.019104973174542347,-2.170139477576807e-05,47.914333333333325,0.4154409972814699,1.1999999999999957,0.0004017709423206767
S017,13845.0,13874.984375,N2,0.11434374999999988,18.315168806852494,-63.77,133.35,197.12,-0.59,0.0,1296.875,1296.875,0.05581428468591172,0.1899835519196333,0.5481938462401375,61.76737563934118,0.11481127349162229,63.13477647065839,0.034375,15,0.09991864166666667,0.0012095065990989408,-3.0608884171246677e-07,32.48666666666667,0.011055415967851706,-5.3472236727493494e-06,48.809666666666665,1.346193357417706,3.3200000000000003,0.0022821881190831493
S017,13875.0,13904.984375,N2,-0.04510416666666665,11.968848641437875,-45.31,34.16,79.47,-0.21000000000000002,0.0,1296.875,1296.875,0.045595976308831845,0.2157809420003434,0.4795107460271934,61.72662704442659,0.09986016021107891,62.78534860936905,0.051041666666666666,34,0.100409625,0.0010753378931177868,-5.061448855644757e-07,32.458666666666666,0.015216949614017098,-1.979167203550006e-05,50.41133333333334,0.42260094126203235,1.5700000000000003,0.00014590281735644953
S017,13905.0,13934.984375,N2,0.2618906249999997,19.88588684580819,-172.83,63.17,236.0,1.105,0.0,1296.875,1296.875,0.17377735096477137,0.2914805954090255,0.8351795954147959,61.76440156577209,0.21003782687505398,63.33245613427605,0.13958333333333334,36,0.10055899166666667,0.0014880780081245367,9.863772206969459e-07,32.434666666666665,0.013349989596335944,-5.3472236727503125e-06,51.410666666666664,0.3061800487004707,1.2899999999999991,-0.0004270834491871349
S017,13935.0,13964.984375,N2,0.02909374999999995,21.143821655006246,-85.9,126.21,212.11,0.12,0.0,1296.875,1296.875,0.09126331714087295,0.14683805681959822,0.5570102482599998,61.725897829932364,0.1369139221781176,63.13477647065839,0.0375,10,0.10095391666666667,0.0012147495460885028,-1.3953562812923927e-07,32.419999999999995,0.013416407864999775,-6.180557232139526e-06,50.821333333333335,0.5206965420366154,1.6700000000000017,-0.0003105556397991634
S017,13965.0,13994.984375,N2,-0.3551302083333334,12.642256197130285,-28.63,32.81,61.44,-0.645,0.0,1296.875,1296.875,0.10152910775842672,0.17116012950028855,0.19249988726547926,61.682053413688436,0.10856643537392936,62.78534860936905,0.07604166666666666,61,0.10166893333333332,0.0011219888422895404,5.722432107864613e-07,32.389333333333326,0.0194821855949356,-2.3402784126188165e-05,50.147333333333336,0.6608677796823079,2.030000000000001,-0.0010351391696883615
S017,13995.0,14024.984375,N2,0.23006250000000003,11.81143543687333,-29.47,26.64,56.11,0.81,0.0,1296.875,1296.875,0.09090593428863096,0.16232629604869594,0.07198059875565237,61.674317532661235,0.09362272059413095,62.63385665915839,0.040625,29,0.10271473333333334,0.001148972742158062,5.521820074278446e-07,32.36066666666667,0.01691810338726434,-1.1666669831452415e-05,49.47233333333334,0.29591308784093323,1.0300000000000011,-0.0002643403494846873
S017,14025.0,14054.984375,N2,-0.12573958333333338,12.715143566289365,-65.08,43.33,108.41,-0.545,0.0,1296.875,1296.875,0.11987768650679834,0.33880758786842746,0.1508655582519306,61.70118661026665,0.13703728830526943,62.81719509815764,0.14375,62,0.103227,0.0011515125053597963,-3.0336379757047713e-08,32.333,0.0064031242374344224,-1.8402782769861015e-06,48.032666666666664,0.4890530532456468,1.5499999999999972,0.00044201400879286294
S017,14055.0,14084.984375,N2,-0.22660937500000017,146.0087777038647,-719.82,676.28,1396.1,1.955,0.0,1296.875,1296.875,6.730464271174431,9.518683598933059,8.807618821540562,61.972316660986486,1.9837068005169123,77.12976079309465,0.05625,24,0.11755147499999999,0.014431334311699719,1.5848277519606533e-05,32.324999999999996,0.011474609652038373,-5.729168220803745e-06,49.81766666666667,0.7915330413542804,2.8200000000000003,0.0011461461442453733
S017,14085.0,14114.984375,N2,-0.07924479166666677,65.59263632929824,-438.92,299.75,738.6700000000001,-7.23,0.0,1296.875,1296.875,0.2791802701909447,0.1737773509647714,0.43660125941437933,62.092117102988595,0.2704816729764066,63.58458932791813,0.13229166666666667,75,0.12292036666666668,0.0013013456748902474,-9.796013942061065e-07,32.309999999999995,0.012649110640673249,-5.277779209465772e-06,52.67833333333333,0.601421002478482,1.8700000000000045,0.0007959377159119239
S017,14115.0,14144.984375,N2,0.5371614583333336,51.58985750322535,-117.47,317.81,435.28,-8.83,0.0,1296.875,1296.875,0.1015291077584267,0.23437268517375387,0.5168503957599551,61.98943440231242,0.20570403027804884,62.49799996799898,0.035416666666666666,9,0.12188505833333332,0.0011453907069630107,-1.2256101414958147e-07,32.29866666666667,0.014313940369056265,5.208334746184825e-06,55.259,0.7399069761350633,2.25,0.0005198265299008586
S017,14145.0,14174.984375,N2,0.05994270833333329,47.48381625888061,-183.39,159.19,342.58,-7.515,0.0,1296.875,1296.875,0.15810015724920146,0.38815888204230664,0.5604089218795703,61.798924011888296,0.24210735812190912,63.3798075099633,0.20833333333333334,94,0.12190640833333331,0.0011883563683777233,4.971839456336661e-07,32.290666666666674,0.015040685563571092,-9.513891469698017e-06,56.49766666666667,1.1197639136095714,3.3500000000000014,-1.5520837543630516e-05
S017,14175.0,14204.984375,N2,-0.22925520833333318,46.66724836338509,-137.07,144.8,281.87,-10.55,0.0,1296.875,1296.875,0.20684625513624577,0.4193856597419876,0.2583480338559251,61.729963976639205,0.22841287798007076,63.63961030678928,0.08229166666666667,51,0.12198108333333334,0.001002014118191735,-4.5906609675187157e-07,32.27133333333333,0.011469767022722982,-9.8611137861085e-06,57.02366666666667,1.609354908720331,5.0,0.0028810771704310912
S017,14205.0,14234.984375,N2,-0.3958854166666663,63.14176258170475,-307.54,258.48,566.02,-11.71,0.0,1296.875,1296.875,0.46922545331819615,0.4952508833914384,0.4409966911408998,61.859630808650905,0.41662479211900577,63.3798075099633,0.26666666666666666,139,0.12268550833333333,0.0010739641210319307,-1.3012264814524945e-07,32.254666666666665,0.01231079020841485,-7.986113277484233e-06,58.35133333333333,0.7550131713347057,2.530000000000001,-0.00047590290687470413
S017,14235.0,14264.984375,N2,0.44596354166666663,45.82920274995614,-115.08,147.14,262.21999999999997,-5.35,0.0,1296.875,1296.875,0.4155075021885886,0.463089667268182,0.47495887979908324,62.010824948338026,0.3916919196412029,62.617888817813075,0.07291666666666667,59,0.12274955833333333,0.0011731623985040977,3.3469562030588635e-07,32.223,0.020680103158994326,-3.0868063929052986e-05,56.18033333333333,1.6040105638333215,5.329999999999998,-0.0028059382611594673
S017,14265.0,14294.984375,N2,0.07579166666666677,47.19592793056866,-196.59,116.92,313.51,-7.97,0.0,1296.875,1296.875,0.3330141701189305,0.49975579974123363,0.34984495573833213,62.07447372303279,0.3389990292689583,63.26926584053272,0.059375,45,0.12356080833333333,0.0010318666119855564,1.9401546061617301e-07,32.181999999999995,0.016000000000001256,-1.5625004238554803e-05,53.04066666666667,0.39878927880384196,1.1499999999999986,0.000355069540763222
S017,14295.0,14324.984375,N2,-0.5051458333333331,43.83455192752705,-109.16,104.08,213.24,-8.17,0.0,1296.875,1296.875,0.28103965899950056,0.49539436976738255,0.3148798271651513,62.07293561879812,0.2825426183973386,62.617888817813075,0.07395833333333333,40,0.12331529166666666,0.0011805482299609299,-3.983640403548281e-07,32.15033333333333,0.014487542541399235,-1.6979171272560073e-05,52.27233333333333,0.13300835395651767,0.5499999999999972,-1.9270838560884244e-05
S017,14325.0,14354.984375,N2,0.47556770833333323,48.26920340857658,-119.43,187.58,307.01,-5.875,0.0,1296.875,1296.875,0.31019811937516467,0.4050409358598489,0.40125129802489945,62.017667020230355,0.2843455078421815,62.99206299209449,0.10208333333333333,58,0.12375295,0.0010351998345730137,-1.0786200842610942e-07,32.11800000000001,0.015999999999999955,-2.1805561470693417e-05,54.659666666666666,0.8468273469577823,2.8200000000000003,0.0011732294849255336
S017,14355.0,14384.984375,N2,-0.381578125,47.99534044071297,-195.33,185.32,380.65,-11.545,0.0,1296.875,1296.875,0.3271413828530411,0.2995928226359904,0.4198007133020249,61.98477994902658,0.28057323004563345,62.99206299209449,0.10104166666666667,54,0.1239451,0.0012122589409857929,-4.714792945636097e-07,32.07866666666667,0.014313940369057126,-1.6319448871380082e-05,54.681,0.4768881769695424,1.4200000000000017,-0.000501840413910703
S017,14385.0,14414.984375,N2,0.057124999999999974,45.89790816499021,-193.18,142.15,335.33000000000004,-8.379999999999999,0.0,1296.875,1296.875,0.2530285309999645,0.34546761536197407,0.3162123248309591,62.01588673876242,0.2553598865470329,62.617888817813075,0.08958333333333333,48,0.12337933333333334,0.00107380973123216,6.885817840119844e-07,32.04866666666667,0.013597385369580285,-1.333333695023114e-05,54.11466666666667,0.8335335759417388,2.3200000000000003,-0.0008118752202352484
S017,14415.0,14444.984375,N2,0.9146718749999998,44.269091391180226,-142.09,161.64,303.73,-6.375,0.0,1296.875,1296.875,0.11557806855349137,0.25828082463667335,0.13928372696486196,62.02095821271428,0.1279350489409236,62.617888817813075,0.078125,56,0.1228883,0.0010366248887615991,-6.819112092858082e-07,32.01166666666666,0.02017974782355434,-2.7395840764931618e-05,55.94233333333333,1.2638926202631122,4.440000000000005,-0.0012629517314864725
S017,14445.0,14474.984375,N2,0.8167291666666662,132.9089133247904,-735.64,892.8,1628.44,-6.37,0.0,1296.875,1296.875,6.362584587955503,7.5925109728774105,6.487099578201339,62.070895248227444,1.9934278894009323,83.09632964216891,0.05520833333333333,19,0.12462823333333332,0.0029838956520331305,1.8168572636874096e-06,31.97066666666667,0.013148721948877068,-1.4791670679163821e-05,52.78,0.6300529078312925,1.7800000000000011,0.0009003474664571042
S017,14475.0,14504.984375,N2,0.4951406250000005,125.01292374599473,-758.68,441.33,1200.01,-2.91,0.0,1296.875,1296.875,3.009334256098939,0.8048781125373373,11.909620175907163,61.83402626317846,0.8933016014892673,66.51315659326356,0.05416666666666667,30,0.07524018333333334,0.057763457223401385,-9.001279481683887e-05,31.907333333333337,0.020483055327649182,-3.22222309630611e-05,53.89433333333333,2.1628880127171524,6.799999999999997,0.0030762161122548023
S017,14505.0,14534.984375,N2,-1.0299739583333316,134.8562125150546,-524.1,515.81,1039.9099999999999,-18.085,0.0,1296.875,1296.875,0.5050429282496688,0.5025445236632162,0.5312459150169743,62.01640136547403,0.4844705114153795,63.35613624582863,0.2375,159,0.0,0.0,0.0,31.84666666666666,0.020055478608656186,-3.090278616069705e-05,61.91166666666666,1.9066761363401197,4.799999999999997,0.0032874661695600498
S017,14535.0,14564.984375,N2,0.894911458333332,109.04712585330785,-612.14,1015.4,1627.54,-5.325,0.0,1296.875,1296.875,0.49989148127924277,0.4911323014219285,0.28501340124437813,61.99436238002456,0.5011151838933543,62.67375846396959,0.20208333333333334,158,0.0,0.0,0.0,31.791333333333334,0.01857118436957843,-2.763889638641878e-05,67.01633333333334,1.9600348352913417,6.490000000000002,0.002204132542353662
S017,14565.0,14594.984375,N2,0.9276458333333335,98.33825251491439,-281.62,522.29,803.91,-15.405000000000001,0.0,1296.875,1296.875,0.502061721526569,0.4636235882666263,0.3376735664810025,61.97506931072107,0.49807188034137284,63.35613624582863,0.15104166666666666,119,0.0,0.0,0.0,31.744666666666664,0.017838784213679154,-2.2777783956646638e-05,69.41600000000001,0.8760844708131746,4.1000000000000085,0.0012774309020808648
S017,14595.0,14624.984375,N2,-3.87384375,100.75914086333435,-317.57,399.2,716.77,-9.379999999999999,0.0,1296.875,1296.875,0.4963364044565831,0.499321371059984,0.35352883742191227,61.968335664973615,0.47363830766997533,62.67375846396959,0.16666666666666666,125,0.0,0.0,0.0,31.699333333333335,0.017688665548561754,-2.25000061035168e-05,73.46033333333334,1.1258966303449984,3.6700000000000017,0.0018648963392188436
S017,14625.0,14654.984375,N2,-0.6225989583333342,103.25432724117022,-317.08,680.25,997.3299999999999,-10.81,0.0,1296.875,1296.875,0.504896811170912,0.5081273062678289,0.5465316382399306,62.024877307811884,0.4732546364073274,63.39558344238185,0.21458333333333332,148,0.0,0.0,0.0,31.669333333333338,0.015040685563572055,-1.5347226385424384e-05,77.72233333333334,1.5410595561351788,4.039999999999992,0.0025305909642445094
S017,14655.0,14684.984375,N2,1.0987395833333347,88.81777336956841,-250.05,322.61,572.6600000000001,-8.155000000000001,0.0,1296.875,1296.875,0.49171852657287596,0.18998355191963326,0.4433096406576334,62.004581639840474,0.4716785646573281,62.67375846396959,0.013541666666666667,13,0.0,0.0,0.0,31.637333333333334,0.017499206331208987,-2.1180561301150467e-05,80.398,0.8360996750786748,2.6199999999999903,0.0014436809471790751
S017,14685.0,14714.984375,N2,0.9746197916666665,148.98822180538446,-887.5,731.63,1619.13,-8.79,0.0,1296.875,1296.875,2.3342983030684685,1.0810026009514913,3.0344590330508483,62.109579090164594,2.0663922447725263,101.84792585025971,0.008333333333333333,3,0.0,0.0,0.0,31.598666666666663,0.01117536974282657,-6.319446158703792e-06,79.83366666666667,0.8544958877737338,3.0,-0.0014096184379390282
S017,14715.0,14744.984375,N2,-0.553453125,21.5812433536743,-54.49,55.04,109.53,-2.395,0.0,1296.875,1296.875,0.49228421668788036,0.49539436976738266,0.4643497170476388,61.973138585543374,0.48076556001959836,62.67375846396959,0.2125,165,0.0,0.0,0.0,31.590666666666664,0.01671991493864558,4.9305568930546074e-06,72.15666666666667,3.7615327845027324,12.0,-0.006771737948062593
S017,14745.0,14774.984375,N2,0.3519322916666668,34.35079974301907,-205.35,132.61,337.96000000000004,-2.0,0.0,1296.875,1296.875,0.4898979485566356,0.30063409549650216,0.7007057144507164,62.068397915819254,0.4692868669842533,62.67375846396959,0.023958333333333335,17,0.0,0.0,0.0,31.578666666666663,0.012310790208412664,-1.1041669661911022e-05,61.575333333333326,2.1905763828017695,6.779999999999994,-0.0037854176935269344
S017,14775.0,14804.984375,N2,-0.28671875000000013,29.63845929426098,-81.71,80.09,161.8,-2.1900000000000004,0.0,1296.875,1296.875,0.49418383718061387,0.10663227798529547,0.498430697010349,62.05475341882653,0.4757395596722406,62.489999199871974,0.0,0,0.0,0.0,0.0,31.56933333333333,0.018245242911204957,-1.9375005255806132e-05,57.778000000000006,0.722515974448547,2.289999999999999,0.00035652787449215364
S017,14805.0,14834.984375,N2,-0.0009479166666662782,31.131749539882172,-104.88,93.72,198.6,-4.425,0.0,1296.875,1296.875,0.49879955720097513,0.07216126567549165,0.4998437255783051,62.038024364062416,0.48109216441738434,62.71363488110062,0.0020833333333333333,2,0.0,0.0,0.0,31.552,0.014922019523732611,-1.0625002882216268e-05,57.81700000000001,0.7901862649612004,2.519999999999996,-0.0007697571532544365
S017,14835.0,14864.984375,N2,0.019359375000000036,26.185233650062194,-81.64,96.11,177.75,-3.26,0.0,1296.875,1296.875,0.49914858064063,0.09090593428863096,0.392286743197994,62.02569922107153,0.4788557233988273,62.56196927846821,0.0010416666666666667,1,0.0,0.0,0.0,31.52733333333333,0.017688665548562254,-1.944444971908911e-05,61.36266666666667,1.4452841320038852,6.080000000000005,0.0023607645292872534
S017,14865.0,14894.984375,N2,0.13987500000000028,124.08960556533079,-1455.19,606.75,2061.94,-3.75,0.0,1296.875,1296.875,0.4620634200698716,0.383870773611815,1.7759961504431503,61.969586017380806,0.3947473889806996,63.26136261573884,0.25625,128,0.0,0.0,0.0,31.49333333333334,0.017950549357116104,-2.506945124497015e-05,64.43466666666666,0.35741416996097003,1.3700000000000045,-7.187501949734606e-05
S017,14895.0,14924.984375,N2,-0.07355208333333328,36.9097229340753,-103.63,193.27,296.9,-6.48,0.0,1296.875,1296.875,0.03225804701500421,0.43204812416815586,0.4966019515304877,61.93428552006604,0.13503870656597014,62.75348595894893,0.23541666666666666,156,0.0,0.0,0.0,31.472,0.015790292376435963,-2.354167305275402e-05,58.85466666666667,1.8674648293579421,7.019999999999996,-0.0032169453170967106
S017,14925.0,14954.984375,N2,0.2923906249999997,38.51119490328315,-122.27,143.59,265.86,-9.305,0.0,1296.875,1296.875,0.032258047015004204,0.4931815908944922,0.36407553922762914,62.01904939485257,0.14794309323801552,63.150613615387776,0.3416666666666667,191,0.0,0.0,0.0,31.44533333333333,0.015216949614017447,-1.4513892826033986e-05,55.035999999999994,0.6137675998834302,1.8400000000000034,-0.0006306946155313089
S017,14955.0,14984.984375,N2,-0.5492968749999999,40.113591799509784,-122.24,125.2,247.44,-7.55,0.0,1296.875,1296.875,0.03225804701500421,0.43660125941437933,0.13686723088047367,61.99207680801822,0.12956862571825603,63.28506932918696,0.24895833333333334,156,0.0,0.0,0.0,31.423333333333336,0.01659986613065129,-1.6944449040920054e-05,55.603,0.5751820001819719,1.7000000000000028,0.0001835069942239027
S017,14985.0,15014.984375,N2,0.29941666666666666,69.38783041170156,-280.63,537.64,818.27,-6.654999999999999,0.0,1296.875,1296.875,0.06454972243679027,0.4150685498103496,0.13238185901860655,61.9750553717495,0.13233166130593163,63.150613615387776,0.19791666666666666,134,0.0,0.0,0.0,31.395333333333333,0.017074997966487235,-2.0000005425348266e-05,56.20100000000001,0.22420749318432712,0.8800000000000026,-0.0002944792465492758
S017,15015.0,15044.984375,N2,-0.6477187499999999,36.50686874588441,-103.54,108.48,212.02,-8.075,0.0,1296.875,1296.875,0.07216126567549164,0.4025957443060387,0.12401959270615269,61.974826316000375,0.12936937397133708,62.8728876384726,0.19791666666666666,140,0.0,0.0,0.0,31.36933333333333,0.020319667538837585,-2.5902784804357843e-05,57.52633333333333,1.1616037285676308,3.469999999999999,0.0020547575018330893
S017,15045.0,15074.984375,N2,1.0207552083333333,51.953100234354736,-200.93,386.4,587.3299999999999,-6.6850000000000005,0.0,1296.875,1296.875,0.07902948640996107,0.4813131271728301,0.3041309910584947,62.008323077767706,0.15530319759077413,63.28506932918696,0.28854166666666664,169,0.0,0.0,0.0,31.334666666666667,0.015216949614018914,-2.2152783787106958e-05,58.053000000000004,0.40974097508873475,1.3400000000000034,4.600695692462958e-05
S017,15075.0,15104.984375,N2,0.05397395833333339,47.78271259031769,-395.41,145.77,541.1800000000001,-5.415,0.0,1296.875,1296.875,0.06454972243679027,0.42989294331069605,0.37149840875612555,61.9687290136904,0.12730970560061175,63.150613615387776,0.14583333333333334,100,0.000138775,0.0003981359998480419,1.3705146946925713e-07,31.296666666666667,0.02022100118413735,-2.5972229267639993e-05,59.278666666666666,0.39887118499864377,1.3999999999999986,-0.00021305561335058847
S017,15105.0,15134.984375,N2,-0.6862552083333333,45.221240471471134,-192.46,152.43,344.89,-10.235,0.0,1296.875,1296.875,0.1547812917115272,0.4985645627838875,0.3555121501283591,61.999312820461746,0.19843502008290864,63.28506932918696,0.2875,170,5.3375e-05,0.0002559775075568164,-6.199285535830495e-08,31.272000000000002,0.016613247725835792,-1.5486115311988416e-05,62.18233333333334,1.9261164439242904,6.300000000000004,0.00330948006442059
S017,15135.0,15164.984375,N2,0.46241145833333347,50.639939946435746,-410.58,149.18,559.76,-5.045,0.0,1296.875,1296.875,0.06454972243679027,0.281672136904475,0.10197698542100345,61.94373627338651,0.09997412902700509,62.8728876384726,0.08958333333333333,59,4.27e-05,0.00022994653726464336,1.3343753619724839e-08,31.238000000000003,0.016812693617224296,-1.6388893334660382e-05,67.78066666666668,1.061178380648398,3.950000000000003,0.0003362500912136737
S017,15165.0,15194.984375,N2,-0.0775729166666667,35.50017433121655,-101.3,106.01,207.31,-6.91,0.0,1296.875,1296.875,0.04559597630883184,0.24393467007354425,0.07198059875565238,61.93990643763186,0.09169058881905333,63.28506932918696,0.06666666666666667,50,1.0675e-05,0.00011645050182373624,4.7259127403192116e-09,31.20466666666666,0.011469767022723258,-1.4722226215881362e-05,63.26533333333334,1.9134066188055503,7.200000000000003,-0.003364862023888353
S017,15195.0,15224.984375,N2,-0.19926562500000003,37.67910050446105,-139.62,103.8,243.42000000000002,-5.904999999999999,0.0,1296.875,1296.875,0.0,0.232399078305449,0.17116012950028855,61.93959669101564,0.071496533651697,62.3377895020348,0.08229166666666667,51,5.3375e-05,0.00030475208674429126,-9.173830613560824e-09,31.164,0.02009975124224286,-2.6875007290313873e-05,56.41166666666666,1.5310586388363954,4.840000000000003,0.0007571182609370288
S017,15225.0,15254.984375,N2,0.22836458333333334,33.61169576843125,-69.78,103.59,173.37,-7.135,0.0,1296.875,1296.875,0.0,0.1529193630552463,0.032258047015004204,61.92593188851549,0.043317497698790286,62.20128616033595,0.023958333333333335,21,1.0675e-05,0.00011645050182373625,1.806966636004404e-08,31.144,0.015620499351813961,-7.0138907915287654e-06,60.793,1.590216232676131,4.520000000000003,0.0023498964707835473
S017,15255.0,15284.984375,N2,0.31912499999999977,42.75778307641048,-108.53,210.04,318.57,-8.5,0.0,1296.875,1296.875,0.09677414104501264,0.2491304321479458,0.22143932185564716,61.93466734337762,0.1168235071446912,63.150613615387776,0.06666666666666667,28,4.27e-05,0.00022994653726464336,-1.278776388556963e-08,31.11333333333333,0.021959558789333672,-3.465278717794717e-05,59.62266666666667,1.8579826574959077,4.659999999999997,-0.0031886814205407503
S017,15285.0,15314.984375,N2,-0.5783593750000001,36.342451554134314,-107.64,121.48,229.12,-9.65,0.0,1296.875,1296.875,0.12489144591960206,0.18814703174792727,0.24576270171764378,61.93212246136809,0.123824190314308,63.00793600809346,0.06354166666666666,35,6.405e-05,0.0002791874773337801,4.2255219795795326e-08,31.090666666666667,0.018245242911204954,-9.375002543132e-06,57.630333333333326,0.366128241042519,1.240000000000002,-0.0001948958862022266
S017,15315.0,15344.984375,N2,-0.7178958333333334,156.22829110608185,-1182.42,1324.3,2506.7200000000003,-3.51,0.0,1296.875,1296.875,12.968998449762053,11.796993606835692,15.495048457255896,62.31873819539768,2.818442785206495,89.76636341080105,0.053125,32,0.03114644166666667,0.021222747163439134,2.94365368480189e-05,31.028000000000002,0.03910669166950029,-6.034723859245885e-05,60.01633333333334,1.3801557480548672,4.469999999999999,0.002431563159603722
S017,15345.0,15374.984375,N2,1.1004999999999996,162.89086173071527,-694.55,561.02,1255.57,-12.975,0.0,1296.875,1296.875,0.07216126567549165,0.10663227798529551,0.506194269909181,62.12994156086191,0.12725948772292253,63.655321851358195,0.007291666666666667,6,0.05096791666666667,0.0023727311850247363,3.638312184872012e-06,30.997333333333337,0.014126413400279264,1.0416669492372478e-06,67.83333333333333,2.3915090540400543,9.300000000000004,0.004125417785757863
S017,15375.0,15404.984375,N2,1.8205572916666681,134.55578826407472,-698.23,609.75,1307.98,-13.704999999999998,0.0,1296.875,1296.875,0.04559597630883185,0.07210109366946754,0.42055993594518987,62.08889927499797,0.09597822229491938,62.297672508690084,0.21875,42,0.055237175000000006,0.0014279154016870195,1.8010054798734488e-06,30.959999999999997,0.01527525231651914,-7.986113277482812e-06,79.581,2.921162268686899,11.269999999999996,0.004870522154547024
S017,15405.0,15434.984375,W,-1.457208333333333,193.07280244691793,-655.06,648.84,1303.9,-13.43,0.0,1296.875,1296.875,0.14002960376490234,0.14037013942312188,0.36680276830107666,62.05507164219195,0.15599193063243644,63.198101237299845,0.12395833333333334,35,0.05801262499999999,0.0014168021507518257,1.629883905675972e-06,30.94533333333333,0.013349989596333572,-7.986113277482817e-06,90.08933333333333,3.046634135493718,9.530000000000001,0.005457570924905308
S017,15435.0,15464.984375,W,1.0070364583333336,244.23591717870585,-1384.69,795.02,2179.71,-5.470000000000001,0.0,1296.875,1296.875,36.25808668182022,28.637662092150027,33.4928140613774,65.02472481414566,10.45176202902157,122.20474622534103,0.13125,53,0.04638883333333333,0.02534979293121653,-2.7276944899344865e-05,30.928,0.023295206946207705,-1.937500525580613e-05,92.24233333333332,0.919273928465045,3.700000000000003,-0.0007360071440991596
S017,15465.0,15494.984375,W,-1.722453124999999,216.03092058384857,-1226.37,1013.98,2240.35,2.1799999999999997,0.0,1296.875,1296.875,22.65528360007881,8.051164242500723,7.153960393065897,64.11758290870665,4.322920919756003,96.15092303249095,0.084375,32,0.0062228833333333325,0.01724843337677528,-1.5114409916018314e-05,30.83133333333333,0.02578543947441923,-3.8750010511614847e-05,85.85633333333334,3.31676698340752,11.899999999999991,-0.005867814091746442
S017,15495.0,15524.984375,W,0.21523437500000017,38.479134147440675,-138.24,289.33,427.57,0.485,0.0,1296.875,1296.875,0.5889019914684918,0.6648861313851668,0.8784431264395487,63.63512960515627,0.34530923575471795,65.05382386916237,0.096875,54,0.0,0.0,0.0,30.794,0.014966629547095446,-1.8333338306569244e-05,72.02533333333334,2.9183999421296285,11.269999999999996,-0.005142501394992781
S017,15525.0,15554.984375,N1,-0.04924479166666439,187.8622941126649,-1145.91,710.97,1856.88,1.415,0.0,1296.875,1296.875,4.857723013229952,7.258050412468251,2.8321533618309855,63.14425842753332,1.0101168101866302,72.069410986909,0.03958333333333333,16,0.0053262833333333325,0.020640819186417695,-1.3394934189164008e-05,30.776,0.015620499351812978,-6.875001864963466e-06,58.73633333333334,4.037762980771518,11.710000000000008,-0.006984342172401847
S017,15555.0,15584.984375,N2,-0.27115104166666637,32.483410279936535,-105.48,70.37,175.85000000000002,4.585,0.0,1296.875,1296.875,0.4963014247074721,0.5262788244283316,0.6307160489277247,63.18269175067603,0.26133593780581515,64.07027391856539,0.0125,8,0.0,0.0,0.0,30.791333333333334,0.014544949486180642,1.7638893673744655e-05,53.80166666666667,1.1546314948453853,3.6200000000000045,-0.0010299655571738176
S017,15585.0,15614.984375,N1,1.0694791666666665,32.19837293928167,-94.7,127.33,222.03,3.915,0.0,1296.875,1296.875,3.64517315451391,4.665773258975051,4.534864458803838,63.24977842162298,1.975081335607001,79.84985911070852,0.030208333333333334,5,0.00033089999999999997,0.002312090213782037,7.875002136231047e-07,30.810666666666666,0.015040685563570985,1.7569449210462197e-05,53.60533333333333,0.4527599314819671,1.8999999999999986,-0.0006906946318073545
S017,15615.0,15644.984375,N2,-0.6783020833333334,123.01445525167796,-756.14,600.65,1356.79,1.53,0.0,1296.875,1296.875,1.6578016185892757,0.6902564690428882,1.8484039661887284,63.20510661013072,0.7819037037965019,69.40461079784254,0.030208333333333334,12,0.0,0.0,0.0,30.804666666666662,0.017838784213679154,-1.8055560453439408e-05,59.59,2.3585292027023965,8.600000000000001,0.0029050702324951816
S017,15645.0,15674.984375,W,1.6874218749999998,63.16684287274077,-321.45,715.55,1037.0,1.5350000000000001,0.0,1296.875,1296.875,5.772624477598988,2.4588902970762145,6.081869740460623,63.35360817293047,1.8375476785097749,82.75868534480233,0.046875,17,0.006500449999999999,0.016919440915630163,1.712362921105393e-05,30.801333333333332,0.015216949614017445,-2.569445141450991e-06,62.169333333333334,1.3009200163303227,4.749999999999993,0.0022261811594458426
S017,15675.0,15704.984375,N2,-1.8188697916666667,157.96090961493886,-1017.25,927.93,1945.1799999999998,4.265000000000001,0.0,1296.875,1296.875,9.111014539418758,5.084193489384526,6.565152902932946,62.79822537415192,2.1936400169327,101.80864403379509,0.041666666666666664,22,0.0052943,0.014995822660327776,-1.3216740564436999e-05,30.836000000000006,0.023748684174076874,3.67361210764235e-05,62.16233333333333,0.4268152085179509,1.8999999999999986,-3.559028743226104e-05
S017,15705.0,15734.984375,N2,-0.39502604166666644,39.8138242074302,-106.97,76.42,183.39,4.76,0.0,1296.875,1296.875,0.5136071628281029,0.29609546778305584,0.6696515211079732,62.57439046464757,0.3503445606183548,63.773035054010094,0.10208333333333333,78,0.00010675000000000002,0.0003907691613983888,-1.645729613099396e-07,30.886000000000003,0.01583245611605022,1.9166671865958758e-05,57.28633333333334,1.9541570788677374,6.5,-0.0034463551015503206
S017,15735.0,15764.984375,N2,0.28505208333333365,109.23459453786357,-775.17,436.32,1211.49,6.99,0.0,1296.875,1296.875,1.5529538246828918,0.8765239704841695,2.527751998304137,62.64493060562065,0.3418129366178167,64.5445582524197,0.12708333333333333,73,0.000362925,0.0012828212148912257,-4.080775846564629e-07,30.90866666666667,0.01857118436957843,-9.30555807984954e-06,51.44000000000001,1.9702216457376907,5.910000000000004,-0.0034313898197129507
S017,15765.0,15794.984375,N2,0.15228125000000028,39.167318401103216,-97.19,104.83,202.01999999999998,3.8200000000000003,0.0,1296.875,1296.875,0.4433096406576333,0.3733993617205757,0.4698551786336817,62.77283807165119,0.2621394608339078,63.647466563878254,0.08229166666666667,63,0.0,0.0,0.0,30.942666666666664,0.015902480589168412,1.6597226724507763e-05,50.06766666666666,0.5893707567303357,1.740000000000002,0.0007646877074348158
S017,15795.0,15824.984375,W,0.6612552083333331,50.96421115226222,-218.04,393.93,611.97,3.5,0.0,1296.875,1296.875,0.4305890163969196,0.12011279421166313,0.5981008354575339,62.820059106319455,0.32042764944465574,63.51377803280167,0.2,81,0.0,0.0,0.0,30.976666666666674,0.013984117975601722,8.75000237358987e-06,48.90366666666667,0.5382904007648243,1.75,-0.0008876044074447712
S017,15825.0,15854.984375,N2,-0.7919687499999999,87.44786094962924,-662.12,408.14,1070.26,4.625,0.0,1296.875,1296.875,0.6198319314652069,0.6963438434163749,0.7006313806826113,62.866519267662945,0.3471985530347294,64.89992295835181,0.22916666666666666,108,0.0,0.0,0.0,30.99866666666667,0.015216949614018972,1.7569449210464464e-05,50.547,0.9837010047095952,3.0600000000000023,0.001743299084011254
S017,15855.0,15884.984375,N2,0.19592708333333356,42.13630546332758,-169.71,143.92,313.63,4.68,0.0,1296.875,1296.875,1.3931877914417075,0.6648118729301462,1.9077646532584207,62.70030721097216,0.3425039898227827,64.19501538281614,0.09270833333333334,63,0.0001387583333333333,0.0007356881245454639,-2.493318818717127e-07,31.017999999999994,0.018330302779824007,2.236111717695298e-05,51.997,0.6515322964622198,2.0400000000000063,0.0009773960984689931
S017,15885.0,15914.984375,N2,-0.5973541666666667,37.453179018937306,-109.26,120.56,229.82,4.395,0.0,1296.875,1296.875,0.35501736068661327,0.46364231117137417,0.3719187649317164,62.61330714065231,0.2677416235954303,63.796551630946325,0.128125,76,0.0,0.0,0.0,31.05,0.012649110640673247,1.291667017053742e-05,49.639,1.599400616897884,4.93,-0.00286642438867849
S017,15915.0,15944.984375,N2,0.4932291666666666,54.015478839495465,-679.08,153.39,832.47,6.335,0.0,1296.875,1296.875,0.22888002907272909,0.48968416514853963,0.5861687043846677,62.73881597122173,0.2801259166406911,63.35613624582863,0.24270833333333333,115,0.0,0.0,0.0,31.07533333333333,0.011469767022723258,5.000001356337066e-06,46.461666666666666,0.8651862355714074,2.539999999999999,-0.0014477434482811006
S017,15945.0,15974.984375,N2,-0.03673437500000022,43.60401163110198,-114.44,319.8,434.24,4.355,0.0,1296.875,1296.875,0.21841243795982762,0.37996710383926663,0.5600632017286581,62.76847656626621,0.27502948343412476,63.35613624582863,0.075,53,0.00040564999999999997,0.0006815299901691781,2.5519928797723744e-07,31.093999999999998,0.014047538337136687,1.3472225876797097e-05,45.70633333333333,0.22222336110819305,0.7000000000000028,0.00018121532693558175
S017,15975.0,16004.984375,N2,-0.46043229166666655,30.65524051295103,-156.18,88.63,244.81,3.425,0.0,1296.875,1296.875,0.15612494995995996,0.26170307270624255,0.5194554690972077,62.76140142949708,0.27807182319829854,63.89835678638379,0.026041666666666668,16,0.0007045500000000001,0.0008882729014779185,-5.39310042130546e-08,31.113333333333337,0.014681810363696516,1.46527817525989e-05,47.54766666666667,0.5626347739776575,2.1799999999999997,0.0008947571871628674
S017,16005.0,16034.984375,N2,0.4311770833333332,31.856658425049986,-131.57,89.82,221.39,4.52,0.0,1296.875,1296.875,0.3879197994860965,0.13274201561048157,0.36930866343600566,62.8380742083295,0.2929245439979365,63.52952069707436,0.016666666666666666,13,0.0037679083333333335,0.0016966145947927857,1.6813335724103654e-06,31.140666666666664,0.013399834161494753,1.2777781243973195e-05,48.17366666666667,0.32980280303370557,1.019999999999996,8.427085619326623e-05
S017,16035.0,16064.984375,N2,-0.06899479166666657,32.22463163870105,-92.65,73.63,166.28,3.965,0.0,1296.875,1296.875,0.5,0.20453835214941968,0.47999927661982533,62.73492162888916,0.37419898957847786,63.52952069707436,0.05520833333333333,47,0.004867191666666667,0.0012655738770470449,-4.957694487221811e-07,31.153333333333332,0.012736648783029656,1.3958337119775852e-05,46.986,0.5410089339989373,1.9799999999999969,-0.0005325001444499093
S017,16065.0,16094.984375,N2,-0.3488958333333334,35.14102554395384,-130.49,138.74,269.23,2.8600000000000003,0.0,1296.875,1296.875,0.5020746887222612,0.21919349883277914,0.5360890719419261,62.73604819878764,0.3975525953382306,63.52952069707436,0.08229166666666667,66,0.0052086499999999996,0.0011302025825045703,-1.0732858814252065e-07,31.189333333333334,0.01749920633120881,2.3958339832448802e-05,47.56066666666667,0.5002261710688701,1.7999999999999972,0.0008664585683752634
S017,16095.0,16124.984375,N2,0.16275520833333335,38.16258026881058,-142.03,92.74,234.76999999999998,5.085,0.0,1296.875,1296.875,0.38783587594066987,0.5424633564173303,0.6732874365545687,62.73775277035408,0.34671408864135017,63.52952069707436,0.19895833333333332,99,0.007492866666666666,0.0017629834369298223,2.3256942072738185e-06,31.226666666666674,0.012736648783028263,1.1736114294735615e-05,47.70133333333333,0.4504200508661019,1.4499999999999957,-0.0007063890805091897
S017,16125.0,16154.984375,N2,0.37416145833333314,32.9457150733245,-95.96,68.21,164.17,5.91,0.0,1296.875,1296.875,0.37063284608520897,0.44492581895749767,0.5111506202649296,62.821970441352065,0.3370037574779791,64.01562309311689,0.33958333333333335,126,0.010353750000000002,0.00153883003853577,1.841993989256182e-06,31.26133333333333,0.01431394036905562,1.715278243076744e-05,46.807333333333325,0.7298672634268658,2.1599999999999966,-0.001262847564791548
S017,16155.0,16184.984375,N2,0.10196874999999998,29.24515173279194,-81.48,71.99,153.47,1.8050000000000002,0.0,1296.875,1296.875,0.5074862734186348,0.30417915214100755,0.30073513805986973,62.7536876336823,0.390913512467157,63.48228099241551,0.04375,33,0.012520683333333334,0.0017997956874014588,2.622659565608606e-06,31.3,0.012382783747337544,-1.180555875801805e-06,48.19166666666667,1.111416763515029,3.460000000000001,0.0018094102130561556
S017,16185.0,16214.984375,N2,-0.19742708333333353,35.178215329899366,-104.15,159.41,263.56,3.3449999999999998,0.0,1296.875,1296.875,0.21668419400259806,0.13188915142607024,0.47020491802038344,62.76966468209886,0.28030465010837113,63.72597586541927,0.04583333333333333,28,0.013556083333333331,0.001456399502101749,-6.375891486515702e-07,31.33533333333333,0.020612833111654773,2.7222229606725954e-05,51.26033333333333,1.4856547004229788,4.0,0.002392813149092109
S017,16215.0,16244.984375,N2,-0.3463697916666667,27.216260812294507,-75.31,56.49,131.8,3.38,0.0,1296.875,1296.875,0.1874536979866999,0.31926021257484205,0.5007633062524539,62.701373886539905,0.3031161608999053,63.72597586541927,0.028125,22,0.015018133333333331,0.0014025000649633575,1.16140309282853e-06,31.384666666666664,0.01454494948618064,1.2500003390842666e-05,50.19666666666667,0.849153827184582,2.5600000000000023,-0.001415139272769985
S017,16245.0,16274.984375,N2,-0.0038281250000000416,32.25704944888082,-94.99,113.74,208.73,3.725,0.0,1296.875,1296.875,0.1286785130556855,0.5029589097834489,0.25472743807515774,62.8806846586079,0.1238151769645559,63.48228099241551,0.008333333333333333,5,0.01643755833333333,0.0011847613106714318,4.291700382948236e-07,31.416000000000007,0.014742229591663675,2.0347227741760563e-05,50.72,0.38857860637628194,1.279999999999994,0.0005444445921344922
S017,16275.0,16304.984375,N2,0.8671250000000001,152.3929688668992,-881.32,591.52,1472.8400000000001,-3.295,0.0,1296.875,1296.875,6.708804331291497,5.476112008932524,3.9361438085513623,63.293072308131656,1.0018305566739945,76.82447526667526,0.026041666666666668,11,0.023770683333333334,0.0026497464060526417,1.910179337613753e-06,31.401999999999997,0.018330302779822966,-1.9166671865958755e-05,54.36533333333333,2.9785552799227273,8.5,0.005292640324609462
S017,16305.0,16334.984375,N2,-0.9115625000000007,127.44646185652269,-560.47,540.34,1100.81,-10.190000000000001,0.0,1296.875,1296.875,0.3587933094260383,0.3781752147557473,0.2923930686545463,63.159370987962006,0.30805530615635307,64.42049363362563,0.17604166666666668,94,0.026716533333333334,0.0016561705172542533,1.7872066480052753e-06,31.387999999999998,0.014922019523732608,-8.541668983742488e-06,61.182,1.573963997894064,4.839999999999996,0.002522014573029125
S017,16335.0,16364.984375,N2,1.2232500000000004,104.39697212623075,-427.64,484.34,911.98,-2.7199999999999998,0.0,1296.875,1296.875,0.48451610847834564,0.3693086634360056,0.5679510184646208,63.304890407593355,0.38893077695263734,64.13267497929586,0.34479166666666666,177,0.030783675,0.0017417705271863461,2.2378072476690672e-06,31.383333333333333,0.01659986613065129,4.583334576642312e-06,62.53666666666667,2.169601089806348,5.750000000000007,-0.003726598233126693
S017,16365.0,16394.984375,N2,-0.9926875000000001,101.3641134714879,-486.28,614.82,1101.1,1.205,0.0,1296.875,1296.875,5.585284174109278,6.340552269447609,3.870637665488724,63.01061362492237,2.1362612849118694,91.2633551870629,0.04895833333333333,27,0.004760583333333334,0.014557486068791394,-1.1493402423340495e-05,31.410000000000007,0.017888543819997937,1.6944449040920057e-05,61.032999999999994,1.0167207089461692,3.5,0.0010921183518116191
S017,16395.0,16424.984375,N2,-0.04003645833333304,70.10578007590212,-226.96,247.25,474.21000000000004,1.08,0.0,1296.875,1296.875,0.6060888961200329,0.47103148485236335,0.7470311610338324,63.098136933391025,0.2663622878154421,63.984373092185564,0.014583333333333334,10,0.0,0.0,0.0,31.429333333333336,0.01314872194887707,-4.375001186794934e-06,62.462,1.541234137523132,4.020000000000003,0.002253958944758832
S017,16425.0,16454.984375,N1,-3.4140156250000007,103.7461953146243,-729.69,700.28,1429.97,5.26,0.0,1296.875,1296.875,5.5344717547537154,0.5257889244321865,4.503931538728753,63.21216399458766,0.3406950562539011,65.99242380758567,0.125,46,0.005443683333333333,0.006508615678446701,1.0402572266322772e-05,31.425333333333338,0.014313940369055622,7.152779718093303e-06,59.50333333333333,2.7462948777499387,7.509999999999998,-0.00440048730481969
S017,16455.0,16484.984375,N2,2.915546875,249.47126198182644,-959.51,1016.89,1976.4,1.57,0.0,1296.875,1296.875,0.9205970426470833,1.0072631200711935,0.8071128834290915,63.27314312274071,0.30101390195537575,64.63745044476924,0.23854166666666668,112,0.01755851666666667,0.004765113029410274,-1.8196819172314215e-06,31.414,0.02091251618847705,1.7222226894049897e-05,57.865,1.1021365614115153,3.1499999999999986,-0.001782535205765843
S017,16485.0,16514.984375,N2,3.3010364583333334,77.44254878227153,-499.61,466.85,966.46,2.165,0.0,1296.875,1296.875,0.2990708266865894,0.22838645595544602,0.3599391706903018,63.022649593511254,0.20618732623075256,64.63745044476924,0.075,42,0.020739391666666666,0.0035822841742288616,2.9951485989443895e-06,31.394666666666662,0.02171532996653598,1.020833610252151e-05,53.038666666666664,1.4004873754835814,6.020000000000003,-0.0023688895314913005
S017,16515.0,16544.984375,N2,-2.7259635416666685,256.79124090540597,-930.14,1046.76,1976.9,-20.72,0.0,1296.875,1296.875,0.46599188565896726,0.3015512555474147,0.2988675820446611,63.09182326575203,0.28497719752987166,64.34283176858165,0.184375,84,0.020920949999999997,0.0020808072265749815,1.507182700516141e-06,31.434,0.014047538337136685,-8.333335593895106e-07,50.05733333333334,0.47028312985075554,1.6999999999999957,0.0006636807355904771
S017,16545.0,16574.984375,N2,0.034520833333335686,215.43280767054046,-1206.87,1293.32,2500.1899999999996,-3.075,0.0,1296.875,1296.875,0.4264871346730949,0.4260964206869405,0.139563897900647,63.39587049490059,0.2480339905312275,64.13267497929586,0.014583333333333334,10,0.02270335,0.0025773771831392217,-1.0133036602928765e-06,31.441333333333333,0.02291045370325229,2.3958339832448443e-05,55.29333333333332,1.9983999154879446,6.380000000000003,0.003423056484119055
S017,16575.0,16604.984375,N2,2.2210052083333314,176.06585951971678,-494.48,621.76,1116.24,-4.46,0.0,1296.875,1296.875,0.23437268517375393,0.32301577780092,0.20912350152216008,63.36944877179757,0.20777558051420597,64.13267497929586,0.05,40,0.02253274166666667,0.001501819121908679,1.5517970789380101e-06,31.496,0.019425069712445682,1.187500322130168e-05,58.67366666666667,1.0073115484077184,2.5799999999999983,0.0017088546302231524
S017,16605.0,16634.984375,N2,-4.654291666666669,165.41913426681205,-397.52,621.08,1018.6,-12.215,0.0,1296.875,1296.875,0.42996361078261286,0.22219509383022437,0.36505326856349185,63.378711589406095,0.35408417109047624,64.13267497929586,0.18333333333333332,131,0.023920108333333336,0.0012716162471164624,6.428029087464489e-07,31.513999999999996,0.014047538337137292,2.7777785312986046e-06,59.311,0.5070065745793308,1.5700000000000003,0.00011072919670388337
S017,16635.0,16664.984375,N2,2.2311145833333343,190.8096328655305,-651.37,756.48,1407.85,-15.870000000000001,0.0,1296.875,1296.875,0.382617935250035,0.3476343040826092,0.3529390488770295,63.36668271268528,0.3178395662477844,64.13267497929586,0.12083333333333333,90,0.025168733333333335,0.001211164348422165,7.532007251521063e-07,31.534,0.01583245611605022,-4.5833345766423134e-06,58.635,1.0331884307004866,3.6300000000000026,-0.0017606601998318688
S017,16665.0,16694.984375,N2,3.517562500000001,193.49052240515837,-515.99,647.87,1163.8600000000001,-7.79,0.0,1296.875,1296.875,0.4144943371815296,0.26836818808308854,0.3736070773739289,63.35997827289201,0.33946515577932374,64.13267497929586,0.14375,100,0.025905291666666667,0.0014553710889657046,8.052964424089742e-07,31.55,0.018618986725024857,1.625000440809547e-05,54.382666666666665,0.8442943141398558,2.9299999999999997,-0.0014896531818720663
S017,16695.0,16724.984375,N2,-1.9273229166666668,164.29918489545952,-462.4,546.13,1008.53,1.7349999999999999,0.0,1296.875,1296.875,0.3639816463626826,0.27393852906871885,0.49763328756112046,63.28284778010989,0.39912634521004464,64.33506042586733,0.05416666666666667,38,0.025585008333333333,0.001197749532079734,3.460927588142247e-07,31.541333333333334,0.01687865186822919,6.736112938398548e-06,55.466,1.4356824161352675,4.770000000000003,0.0025629173619024954
S017,16725.0,16754.984375,N2,-3.1740677083333337,168.16178669744403,-583.59,777.16,1360.75,-15.629999999999999,0.0,1296.875,1296.875,0.49727992759500045,0.06441510347391793,0.39361218928731817,63.17677980624411,0.39884413833091553,64.13267497929586,0.06145833333333333,53,0.027399733333333336,0.001545118295003834,1.5436857486126707e-06,31.566666666666666,0.014681810363696514,5.7638904524441185e-06,59.90599999999999,0.7044269538662854,2.5500000000000043,0.0012438197818521546
S017,16755.0,16784.984375,N2,1.714473958333332,221.46308030143146,-1585.78,912.95,2498.73,8.14,0.0,1296.875,1296.875,0.5592925528935838,0.33803808700187743,0.4038873605350878,63.218802400369356,0.3801070854230487,64.13267497929586,0.08020833333333334,57,0.02753855,0.0018562188576512202,5.592774954637302e-07,31.57533333333333,0.017838784213679154,-8.888891300154784e-06,60.02066666666666,0.4409605676500139,1.3599999999999994,-0.0007280557530533184
S017,16785.0,16814.984375,N2,-0.5088802083333351,225.83495351981756,-1371.37,1088.97,2460.34,9.17,0.0,1296.875,1296.875,0.5440402721383164,0.2174664725116648,0.3648570401160189,63.2302517119732,0.32412976904181545,64.34283176858165,0.046875,33,0.028317808333333336,0.0018620814710776103,1.7538698334065285e-07,31.58133333333333,0.020450482200236854,1.1875003221300533e-05,64.28,3.794885154169139,12.360000000000007,0.006564307336237882
S017,16815.0,16844.984375,N2,0.45357291666666605,198.20615060394636,-628.34,810.5,1438.8400000000001,-15.4,0.0,1296.875,1296.875,0.42809331796804406,0.1986035230679456,0.22008274564480412,63.25968574541233,0.273238708234229,64.34283176858165,0.078125,49,0.030335349999999997,0.0014510148612264459,4.898269557907327e-07,31.593999999999998,0.01583245611605022,7.3611131079406825e-06,72.07233333333333,0.7534174731773134,2.069999999999993,-0.0011425350321546855
S017,16845.0,16874.984375,N2,-0.9721562500000014,199.98934443342998,-625.94,657.99,1283.93,-1.955,0.0,1296.875,1296.875,0.38439617150365407,0.2866363083489056,0.28247418761130483,63.331642232778286,0.19887290592252996,64.25729530566937,0.06875,30,0.03187251666666666,0.0013654995849098192,4.931003941787095e-07,31.609333333333332,0.018245242911204957,2.1875005933974666e-05,68.09533333333333,3.5238215366590597,10.769999999999996,-0.006015904409696291
S017,16875.0,16904.984375,N2,5.363296875000001,227.29864494828942,-701.44,805.49,1506.93,-10.21,0.0,1296.875,1296.875,0.17468970506459602,0.2807402788462437,0.1329706982655285,63.36149412455199,0.14149430271106586,64.34283176858165,0.07708333333333334,46,0.033366683333333334,0.0012355008092762314,6.481360265125939e-07,31.604000000000003,0.012806248474865424,2.0833338984737697e-07,58.833333333333336,0.9109860347752625,3.9100000000000037,-0.0014998615179745872
S017,16905.0,16934.984375,N2,1.8875572916666679,193.86915306926366,-568.46,761.05,1329.51,0.13,0.0,1296.875,1296.875,0.19290530474101078,0.48693766534388727,0.032258047015004204,63.415913449363785,0.15153563761906724,63.96092557178953,0.3645833333333333,182,0.03377225,0.0013115393960914789,2.5008296714490213e-07,31.622,0.022271057451320124,2.6805562827029714e-05,54.172999999999995,0.7932177086609538,3.75,-0.0012621183979270824
