participant_id,window_start_time,window_end_time,sleep_stage,BVP_mean,BVP_std,BVP_min,BVP_max,BVP_range,BVP_median,SDNN,median_nni,IBI_mean,x_std,y_std,z_std,mag_mean,mag_std,mag_max,movement_density,burst_count,EDA_mean,EDA_std,EDA_trend,TEMP_mean,TEMP_std,TEMP_slope,HR_mean,HR_std,HR_range,HR_trend
S030,6623.0,6652.984375,W,0.3032656250000001,109.81671935743411,-787.94,687.51,1475.45,3.58,0.0,859.375,859.375,19.30822608115623,6.35969841178722,8.741814065229349,66.12205560151459,3.7672951875600873,99.10095862301232,0.07395833333333333,32,0.5279138583333334,0.03278449270089337,5.481967632912161e-08,29.928000000000004,0.019561867668161197,-4.930556893054605e-06,84.37066666666666,2.268473691469419,7.75,-0.003824376037428395
S030,6653.0,6682.984375,W,0.4556927083333333,149.972305202839,-1030.5,794.41,1824.9099999999999,-0.13,0.0,859.375,859.375,6.49421809816988,1.7626477479443627,12.581458150497038,65.92810848955975,1.281734887632402,74.16872656315464,0.06770833333333333,32,0.5486261416666667,0.01922648600208222,1.987352557333048e-05,29.846000000000004,0.10005331911869074,-0.00015916670984339918,71.10033333333332,3.1331831346979313,10.620000000000005,-0.0055066334382143645
S030,6683.0,6712.984375,W,-0.3838958333333335,55.03168236560781,-284.05,288.5,572.55,-0.365,0.0,859.375,859.375,17.95067883562408,2.740121144929342,11.161160800591786,65.32664195435875,1.2502736901773333,80.99382692526635,0.051041666666666666,28,0.5614913416666667,0.014752055363290812,1.0777126404385428e-05,29.495999999999995,0.08811356308764239,-2.284722841992891e-05,68.66833333333332,0.815945600038521,2.5600000000000023,0.0014151739950016258
S030,6713.0,6742.984375,W,1.4709166666666649,107.37904539572524,-494.71,371.32,866.03,1.87,0.0,859.375,859.375,15.541263085410097,28.415464428838696,7.1176368355841175,64.54117764374986,2.761704791958029,84.57541013793548,0.071875,29,0.5326064083333333,0.047837447650785014,-6.204661947879217e-05,29.34733333333333,0.07945369021567819,-7.66666874638367e-05,72.70066666666666,1.2672619653760981,4.240000000000009,0.002136389468421624
S030,6743.0,6772.984375,W,-0.2504635416666658,148.5066523041551,-530.62,539.0,1069.62,-0.215,0.0,859.375,859.375,25.077012436380354,16.720835117897987,16.398722181703924,64.53455876143799,5.343814224550326,91.4603739331958,0.11354166666666667,60,0.45235089166666664,0.14201409206335802,1.830043703896405e-05,29.370666666666672,0.027560035478125963,1.159722536817104e-05,71.39866666666667,1.3316224022680851,4.579999999999998,-0.002296458956287696
S030,6773.0,6802.984375,W,-0.340375,169.88907370314766,-821.6,724.91,1546.51,1.0750000000000002,0.0,859.375,859.375,22.034054687510928,31.206023205970947,11.379382550130838,64.22721621649904,6.086966026881967,137.63720427268203,0.07708333333333334,28,0.5717645,0.10729804513006438,1.7259367963153198e-05,29.393333333333334,0.03580813067198848,-9.513891469697514e-06,71.01866666666665,2.3139759914244773,7.6000000000000085,0.004010834421341804
S030,6803.0,6832.984375,W,-3.2521406250000005,228.98145783886406,-734.92,1024.84,1759.7599999999998,-5.26,0.0,859.375,859.375,12.612844765618785,2.8459490505390095,10.883549481008277,64.36412351539413,1.4380324851766477,93.60555539069249,0.05,13,0.5216650166666666,0.0995875476774902,-4.58752173055602e-05,29.44333333333333,0.015776212754931972,-5.555557062596752e-07,81.50099999999999,3.11558806648119,10.019999999999996,0.0056121195779404226
S030,6833.0,6862.984375,W,0.1767604166666672,158.02087193009274,-547.47,743.3,1290.77,1.0550000000000002,0.0,859.375,859.375,22.19153367089951,26.20166151167178,10.85424259210489,64.26640180392964,3.1522834330903073,95.40440241414439,0.059375,24,0.550299725,0.08547028021891223,1.387960424251417e-05,29.358000000000004,0.04118252056394849,-6.930557435589677e-05,82.84366666666666,2.404593497639236,7.6000000000000085,-0.004268855324667786
S030,6863.0,6892.984375,W,3.5044843750000014,219.3365099072104,-1069.04,1245.04,2314.08,9.809999999999999,0.0,859.375,859.375,9.817421746480278,2.6709761321029974,9.15019347235878,64.43691053157133,1.5398115078168557,75.8023746329889,0.04895833333333333,10,0.4866279583333333,0.017571849229376248,-1.817667832483679e-05,29.271333333333335,0.017074997966487232,-1.611111548153055e-05,75.00166666666668,2.3430408779096354,6.969999999999999,-0.0041977441942665445
S030,6893.0,6922.984375,W,-0.7933802083333327,169.81219326398877,-543.79,993.57,1537.3600000000001,0.6000000000000001,0.0,859.375,859.375,26.972596509357366,36.015534104488815,14.465867655966253,65.28830429464057,8.131012482900626,116.15076409563564,0.11458333333333333,51,0.5040410666666666,0.09837816637028203,2.86292100231147e-05,29.193333333333335,0.03309917756615047,-4.326390062497267e-05,73.84533333333333,1.0686275725849903,3.240000000000009,0.0018780560650108675
S030,6923.0,6952.984375,W,1.127375,204.79452696540594,-809.34,1081.89,1891.23,-12.665,0.0,859.375,859.375,21.27169519046476,9.782189562612702,8.61376828822693,63.98851789256858,4.7153113625468395,106.58799181896617,0.13125,64,0.5147874166666667,0.0817691884437106,1.635561207563262e-05,29.218,0.03409789827345184,-1.888889401282992e-05,74.70266666666666,0.9463929181664233,3.480000000000004,0.001403750380791664
S030,6953.0,6982.984375,W,-2.162614583333332,283.57060834990426,-1393.22,1012.79,2406.01,-6.65,0.0,859.375,859.375,27.72921323249283,27.757352453618033,9.803781899855307,64.66942635826766,5.506121849898544,88.68483523128404,0.13854166666666667,73,0.48618512499999994,0.055827543421618574,2.755525270053522e-06,29.268666666666665,0.06571318149520826,0.00011486114226918948,82.36466666666665,3.3167571846944464,10.27000000000001,0.005966043285059485
S030,6983.0,7012.984375,W,-2.274578125,272.64751588346843,-1228.76,1181.26,2410.02,-1.55,0.0,859.375,859.375,3.920963401136965,4.432537204323087,21.14086517992004,65.65162218626712,1.446592310099807,77.63375554486592,0.04375,15,0.5874087916666666,0.015478026328150842,-1.1140811832902507e-05,29.43066666666667,0.06562181209188139,5.6458348648639934e-05,91.85866666666668,1.9903479316162005,6.6000000000000085,0.0035692370793286333
S030,7013.0,7042.984375,W,2.097906249999999,193.17021368469622,-748.46,1031.62,1780.08,-4.535,0.0,859.375,859.375,38.013526909267405,34.01646990223082,7.841002174732938,65.08098697024225,4.668659869722684,110.18166816671456,0.046875,19,0.559084125,0.05936211150537051,-8.3351832289451e-05,29.319333333333336,0.06980608060111154,-8.944446870780939e-05,94.25033333333333,0.4831251275693387,1.5,-0.0006762849056762453
S030,7043.0,7072.984375,W,1.103010416666667,232.10453510779158,-1055.43,1069.6,2125.0299999999997,11.1,0.0,859.375,859.375,11.114308952798815,15.573891378359187,8.360836839989796,63.49887181625572,4.299775544070997,101.81355508968342,0.058333333333333334,18,0.17854134166666666,0.22407921641086723,-0.00018349038158918779,29.03533333333333,0.22114449775856687,-0.0003220834207040522,89.927,2.9777879373790213,9.180000000000007,-0.0053343417248105825
S030,7073.0,7102.984375,W,-0.8487031250000003,102.74081765912725,-462.07,678.22,1140.29,2.235,0.0,859.375,859.375,0.5334472534583173,0.3170484951295131,0.5220392289830548,63.010213777964026,0.34526751262047645,64.19501538281614,0.19583333333333333,134,0.17810494999999998,0.024063777676156754,4.333657208565867e-05,28.892,0.017397317800932812,2.708334068015908e-06,78.45133333333334,3.8290100838496395,12.930000000000007,-0.00688507131213957
S030,7103.0,7132.984375,W,-1.3131041666666667,97.64662717789241,-415.05,596.7,1011.75,-5.25,0.0,859.375,859.375,0.5229031787769127,0.3580894882528978,0.4205599359451899,63.14035531487672,0.37320331070018753,64.45153217728807,0.11458333333333333,89,0.2471817083333333,0.016282168251083674,2.927081544889741e-05,28.863333333333337,0.015776212754932472,3.750001017253045e-06,67.73,1.7377399114942391,5.530000000000001,-0.0030836119475943905
S030,7133.0,7162.984375,W,1.4436927083333326,87.62539099448756,-448.56,518.88,967.44,0.16,0.0,859.375,859.375,0.4276672837096094,0.47530029798422063,0.17918786211837995,63.08012361391763,0.3927529158022007,64.20280367709809,0.10208333333333333,83,0.30338268333333335,0.013003142246513166,2.3261356136435585e-05,28.818,0.02948445918332857,-4.5555567913295214e-05,63.906333333333336,0.6912765164695117,2.270000000000003,-0.0002837153547404961
S030,7163.0,7192.984375,W,0.3256979166666667,17.611254499147574,-44.9,48.19,93.09,-0.43,0.0,859.375,859.375,0.45907964806108414,0.483027920748089,0.18055422008053118,62.95574193641904,0.40898113445805095,63.835726674018524,0.08333333333333333,67,0.33975738333333333,0.008564583730089996,1.527377671272155e-05,28.77266666666667,0.017688665548561758,-1.8055560453439408e-05,68.83833333333334,2.2856466383838843,6.5,0.004057813600752384
S030,7193.0,7222.984375,W,-0.289796875,15.482989621355115,-42.68,50.23,92.91,-1.355,47.52985899762014,859.375,831.2906901041666,0.504132230228891,0.2986060642338368,0.3068216744797465,62.86359893790317,0.3668722408763958,64.20280367709809,0.06666666666666667,57,0.364985875,0.006419115186382128,1.1361619184467008e-05,28.752666666666663,0.016110727964792418,-1.263889231740758e-05,72.41199999999999,0.48677441729545956,1.7000000000000028,-0.00010187502763537119
S030,7223.0,7252.984375,W,-0.11617187500000009,13.943262571102538,-41.88,36.83,78.71000000000001,-0.395,0.0,796.875,796.875,0.4799992766198252,0.09090593428863095,0.2840810446519717,62.96178741462994,0.3024079280494603,63.835726674018524,0.04479166666666667,40,0.3836697416666667,0.004499219807358889,7.687770097593887e-06,28.72733333333333,0.016110727964792418,2.361111751603615e-06,70.27300000000001,1.12749619363733,3.0799999999999983,-0.0018212852162774568
S030,7253.0,7282.984375,W,0.04861979166666662,22.4926838341665,-67.89,214.48,282.37,-0.395,0.0,796.875,796.875,0.40760457928678323,0.0,0.37544967252245964,63.081898424559725,0.26245536800797403,64.1248781675256,0.11354166666666667,90,0.398584775,0.004480502539638641,7.449487046844355e-06,28.732000000000006,0.010770329614268779,-5.9027793790090365e-06,70.48333333333333,1.2341510802526925,3.469999999999999,0.0018948616251252214
S030,7283.0,7312.984375,W,0.3473072916666665,30.29442539631792,-110.83,299.29,410.12,-0.445,16.103775868479485,796.875,795.8333333333334,0.6023680122833733,0.07880950133074055,0.45471941707374774,63.10905841913553,0.36210557871818383,65.03076195155643,0.21875,153,0.41198367499999994,0.004315400441369837,7.2560950673000935e-06,28.716,0.01645195023900374,-1.409722604633923e-05,72.14466666666665,0.9931086994326899,2.8500000000000085,-0.0015058337418168768
S030,7313.0,7342.984375,W,-0.027963541666666702,12.680199314479278,-47.68,43.64,91.32,-0.5,96.65107654772974,359.375,433.8460286458333,0.5509924363641986,0.11110243021644486,0.4427647022936926,63.24165685998114,0.35226070516105196,65.03076195155643,0.019791666666666666,14,0.4267706,0.00429022649635191,6.926185472598052e-06,28.678000000000004,0.016000000000000014,-1.6111115481530705e-05,71.80766666666668,0.6960971356227685,2.5,0.0008477432855206376
S030,7343.0,7372.984375,W,0.015890624999999995,10.64924344625572,-33.95,30.57,64.52000000000001,0.20500000000000002,63.40316049748822,562.5,522.5830078125,0.460382493075655,0.1496378730654628,0.3903123748998999,63.271405340272736,0.31802714806689064,64.1248781675256,0.010416666666666666,10,0.4369453583333333,0.003311488801118094,5.2831930564217274e-06,28.65333333333333,0.017191729277637985,-1.6458337797944595e-05,79.80266666666668,4.672411892041293,13.780000000000001,0.008374030049378815
S030,7373.0,7402.984375,W,0.007968750000000035,10.196640594612036,-31.56,33.67,65.23,-0.425,8.071275769896042,421.875,424.12109375,0.4228178763926878,0.20684625513624577,0.36210317120569685,63.30387309453855,0.31269190996534063,64.389440128021,0.007291666666666667,4,0.44688515,0.003434955226903743,5.398597818630054e-06,28.625999999999998,0.01583245611605022,-1.7500004747179736e-05,88.781,0.894074381693155,2.730000000000004,0.0013901739882199375
S030,7403.0,7432.984375,W,-0.10919791666666664,19.46045246621968,-62.31,140.39,202.7,-0.57,0.0,453.125,453.125,0.4689478749018914,0.19249988726547926,0.21578094200034337,63.27268925428431,0.3114528280628084,64.1248781675256,0.0020833333333333333,2,0.4569637583333333,0.0035863833918397363,5.5725915724261e-06,28.587999999999997,0.020880613017820654,-2.645834051061698e-05,85.63366666666667,2.128292716918632,6.569999999999993,-0.0038293413165530915
S030,7433.0,7462.984375,W,0.12648958333333335,33.15766786742007,-143.23,369.74,512.97,0.705,0.0,453.125,453.125,0.5059444808556898,0.1242643282035874,0.30686587732536613,63.22918525771938,0.32165972445309965,63.75735251718032,0.004166666666666667,3,0.4660815416666667,0.0034373613157377796,5.176200405870335e-06,28.552666666666667,0.014360439485691705,-6.52777954855117e-06,79.78533333333333,1.099235289745658,3.8499999999999943,-0.0019384727480666081
S030,7463.0,7492.984375,W,3.5055677083333348,197.39897230474472,-1365.68,1028.84,2394.52,1.14,71.2852999595704,718.75,697.998046875,0.7672149024864039,0.7494181770991859,2.2573411777372807,63.10198280326084,0.4210300428403941,65.06150935845248,0.08958333333333333,62,0.440756875,0.022555931807236616,-2.7533436939408888e-05,28.63933333333333,0.1390187837028576,0.00021305561335058777,74.95566666666667,1.7626621596008958,5.6200000000000045,-0.0031326744609034467
S030,7493.0,7522.984375,W,-3.801817708333333,37.129876160946004,-177.77,138.1,315.87,-2.955,0.0,718.75,718.75,0.5598510156481117,0.49984372557830503,0.12489144591960208,63.05899355801595,0.4130655114766867,64.47480127925948,0.09270833333333334,80,0.44186715833333334,0.002994632584574817,4.417654627184964e-06,28.763333333333332,0.018856180831640864,-1.2638892317407579e-05,71.47733333333333,1.1590942824272572,2.969999999999999,-0.0019710422013460853
S030,7523.0,7552.984375,W,0.4512083333333334,27.859750907415954,-115.07,81.0,196.07,0.75,0.0,718.75,718.75,0.5082607530151777,0.35398126274564307,0.2763853991962833,62.90846228965253,0.3642307208821384,64.47480127925948,0.0625,57,0.4472056,0.0020073693290805516,1.8619961648209983e-06,28.70466666666667,0.02777688887466609,-4.180556689604104e-05,71.40933333333334,0.7660023208552015,2.3599999999999994,0.0013631253697714207
S030,7553.0,7582.984375,W,-0.4834843749999998,24.2578249165511,-114.62,75.74,190.36,0.5,0.0,718.75,718.75,0.501663898109747,0.045595976308831845,0.4792017650188929,63.084836778849954,0.3295101200190899,64.10148204214939,0.3229166666666667,187,0.4514333166666667,0.002746785815528563,3.616984054086395e-06,28.614,0.03322649545167219,-5.208334746184527e-05,73.29433333333333,0.9964727236050601,2.4799999999999898,0.001721424078077276
S030,7583.0,7612.984375,W,-0.11991666666666673,22.04257996595579,-71.56,78.36,149.92000000000002,-0.08499999999999999,0.0,718.75,718.75,0.5281609537400087,0.3121091305537215,0.17918786211837995,63.11441747928042,0.34079258271591556,64.10148204214939,0.4114583333333333,204,0.45572535833333333,0.0018813271724850346,-1.0259616498376654e-07,28.516,0.03147485769096819,-4.8819457687570584e-05,74.70900000000002,0.1314115672229811,0.480000000000004,-4.934029116218998e-05
S030,7613.0,7642.984375,W,0.41882812500000005,37.852409024939114,-155.08,264.53,419.61,0.10500000000000001,0.0,718.75,718.75,0.5299985259413463,0.47177151183067423,0.41620286686769575,63.0705455077697,0.41462555679732155,64.10148204214939,0.07604166666666666,65,0.45870383333333337,0.0018560927344529177,3.392622448085877e-08,28.415333333333333,0.0206128331116533,-3.180556418336634e-05,74.40766666666669,0.9102332423920555,2.469999999999999,-0.0015718407041668554
S030,7643.0,7672.984375,W,-0.30025000000000013,94.48091869437623,-284.51,529.57,814.08,-6.34,0.0,718.75,718.75,0.5148731892822412,0.5086064839889042,0.8181931948914428,63.05258956895456,0.40196224818059234,64.1248781675256,0.28541666666666665,168,0.46436247499999994,0.005245683334835888,8.631301603543178e-06,28.371999999999996,0.020231987873991664,-2.2708339493365078e-05,71.51866666666666,1.4639438362025894,4.579999999999998,-0.002597084037837466
S030,7673.0,7702.984375,W,0.24529166666666669,55.22329288347533,-182.12,370.61,552.73,-2.575,0.0,718.75,718.75,0.7951649680342368,0.5041107062607049,1.221330956602491,63.08343841075985,0.40389554244094117,64.38167441127949,0.30833333333333335,176,0.484839975,0.004947411109968695,7.657017919112938e-06,28.25133333333333,0.05110338105796394,-8.569446769055508e-05,67.15633333333334,0.4736347631761101,2.0500000000000114,-0.0004029514981964783
S030,7703.0,7732.984375,W,0.07676562499999996,14.679026112509476,-98.19,76.86,175.05,-1.0,0.0,718.75,718.75,0.5189873536647005,0.3649685464948391,0.31374059304180296,63.02956178563534,0.34059914480850434,64.10148204214939,0.32916666666666666,186,0.4933171416666667,0.0026558088450785054,1.4907571318243054e-06,28.160000000000004,0.016124515496598296,-4.0972233336650345e-06,74.56233333333333,4.934377153085168,16.14,0.008835939896902099
S030,7733.0,7762.984375,W,-0.060088541666666655,10.660534043185189,-27.59,56.75,84.34,-0.575,0.0,718.75,718.75,0.4454035603778019,0.05589199343873465,0.24358969087381344,62.99324161081201,0.28768274516059655,64.02343321003646,0.246875,158,0.49998987500000003,0.002720170501894142,3.733526837436763e-06,28.157333333333334,0.013148721948878664,2.9861119211464876e-06,92.83233333333331,4.197557768777247,13.680000000000007,0.007451217299049831
S030,7763.0,7792.984375,W,-0.10440624999999998,11.36382069522809,-37.34,39.86,77.2,-0.255,0.0,718.75,718.75,0.41675910432966745,0.1595859170809115,0.47981726664950275,63.03835782127988,0.3224668400746966,64.02343321003646,0.13958333333333334,105,0.5061715916666666,0.0025707842853100763,3.2090622854444143e-06,28.159333333333336,0.013399834161495826,-6.944446328246537e-07,94.17233333333334,3.255222146370693,10.5,-0.005832744637788799
S030,7793.0,7822.984375,W,0.010109375000000064,14.16673439708744,-44.12,59.07,103.19,-0.16999999999999998,0.0,718.75,718.75,0.37482490125020007,0.13188915142607024,0.4229525846816507,63.15513908827858,0.2800120357864819,64.45153217728807,0.041666666666666664,38,0.5141789333333333,0.0032760933435351854,4.234325367384265e-06,28.17933333333334,0.01436043948569219,1.0000002712674799e-05,84.80299999999998,1.0599438664382188,3.6899999999999977,-0.0016048268242260266
S030,7823.0,7852.984375,W,-0.006343750000000048,11.479115255476033,-38.69,39.89,78.58,0.315,0.0,718.75,718.75,0.3542830691065487,0.36795317627458474,0.24119701130795318,63.16353635731421,0.3111936774917068,63.85138996137829,0.053125,47,0.5195812333333334,0.0027271667096498103,3.452204495498166e-06,28.218,0.01973153144926457,2.4583340001990577e-05,88.943,3.3991569052732276,10.489999999999995,0.0061149669365687205
S030,7853.0,7882.984375,W,-0.0018020833333333226,12.053659635424518,-43.69,41.78,85.47,0.225,0.0,718.75,718.75,0.32375395482354946,0.4901094247858216,0.24632718756429087,63.007757576346236,0.3730306516193511,63.85138996137829,0.04375,37,0.52601925,0.002479156863566042,2.9920320616406297e-06,28.256666666666664,0.012995725793078342,1.2638892317407584e-05,98.43566666666668,1.6102415622784327,5.859999999999999,0.002820868820765196
S030,7883.0,7912.984375,W,0.060854166666666695,19.195376127783117,-76.35,77.38,153.73,0.435,0.0,718.75,718.75,0.5540951943258486,0.5012311232244949,0.48732190479075416,63.027780220601606,0.4377542653977617,64.40496875241847,0.16875,128,0.5381819333333334,0.028720156736669954,1.4303319852246035e-05,28.294,0.013063945294843338,1.2361114464277748e-05,98.19633333333334,1.2953467575217914,4.0,-0.0021021880702550063
S030,7913.0,7942.984375,W,-0.10056250000000005,55.05512927867781,-406.08,763.47,1169.55,0.975,0.0,718.75,718.75,0.8869325259316829,0.42081141650849835,0.9563107052263692,62.95453904676563,0.3721738965337747,64.69930447848725,0.20520833333333333,158,0.3611423916666667,0.008706920195354031,6.928320238802148e-06,28.400666666666666,0.061042790092051366,7.805557672948638e-05,98.765,1.4313624046108429,3.8900000000000006,0.00249614651045641
S030,7943.0,7972.984375,W,0.06496874999999991,12.054675264319238,-32.59,42.54,75.13,-0.565,45.95929955636623,718.75,742.4479166666666,0.3126232395880952,0.24393467007354425,0.26949790957239145,62.90524925420229,0.25704980065484506,63.94528911499267,0.15833333333333333,121,0.36530610833333327,0.0022445533401096174,1.257488839379568e-06,28.479333333333333,0.024073960113690823,3.638889876001007e-05,99.34366666666666,2.821395025317952,9.010000000000005,-0.0044642720443446296
S030,7973.0,8002.984375,W,0.10788020833333359,52.29596049007419,-250.26,372.14,622.4,1.605,44.791947593103714,812.5,845.556640625,0.6080327096807101,0.30550327046349096,0.8556770183440843,63.047849316552465,0.36791741459295907,64.29618962271404,0.14479166666666668,111,0.3713810416666667,0.004620351167021533,6.717774174743426e-06,28.522666666666662,0.01896195020443752,1.3402781413515413e-05,83.756,5.934779187130722,19.950000000000003,-0.01067889178572368
S030,8003.0,8032.984375,W,-0.11381249999999987,22.05952963116342,-94.47,170.46,264.93,-0.33,40.291733991217555,843.75,851.8961588541666,0.5223976507944456,0.4795107460271934,0.3657184709581948,62.99768620002917,0.4181707497994236,64.29618962271404,0.15104166666666666,113,0.3813529749999999,0.0026039790496549054,2.588033905174125e-06,28.53733333333333,0.013148721948877068,9.791669322826757e-06,69.19966666666666,1.0274514857430275,3.769999999999996,-0.0014082295486733817
S030,8033.0,8062.984375,W,0.08604166666666666,14.658500373017832,-52.27,50.76,103.03,0.55,71.90173798946631,890.625,929.4189453125,0.5083920304226083,0.496208497774765,0.3432746081451732,63.10236452864774,0.4341265871368653,63.7102817447859,0.2375,174,0.38879438333333327,0.003144738993364771,4.028983731820669e-06,28.56333333333333,0.016599866130651286,1.5277781922141032e-05,68.85799999999999,0.5855732234315368,2.280000000000001,0.0008045835515905911
S030,8063.0,8092.984375,W,-0.0706510416666667,11.523965763568318,-36.13,46.21,82.34,0.17,0.0,1015.625,1015.625,0.5117107320194574,0.48693766534388727,0.2318404623873926,63.085138360369186,0.41671499422313707,64.17164482853778,0.20104166666666667,154,0.3945489083333334,0.002287330693172845,2.2970346942911024e-06,28.612666666666666,0.024621580416825602,3.611112090687907e-05,71.63566666666665,0.45866969475744496,1.2999999999999972,0.0007547571491854224
S030,8093.0,8122.984375,W,-0.43926562500000005,37.913966846173935,-150.54,608.16,758.6999999999999,-0.11499999999999999,267.64531154467386,390.625,542.1956380208334,2.503275631825007,1.2849269731735298,2.9583656101525606,62.95814989842759,0.7206094877172192,68.97100840208152,0.12291666666666666,86,0.3901823,0.02510827197180244,-2.303083914682053e-05,28.66733333333334,0.015260697523013702,1.7638893673746058e-05,72.69966666666666,0.20674434024229543,0.6599999999999966,0.0003708681561599809
S030,8123.0,8152.984375,W,1.0177447916666666,68.11187689786159,-383.76,284.96,668.72,0.755,141.79201751226154,390.625,468.6848958333333,0.5288507915492064,0.9774136568501701,1.647519903247673,62.832343694859794,0.46179267824293085,64.19501538281614,0.24583333333333332,163,0.3196749416666666,0.005018928377146913,-7.627750984090435e-06,29.013999999999996,0.1051221511702775,0.00010611113989559991,74.47833333333334,1.9402767557461698,5.6699999999999875,0.0030339938785790646
S030,8153.0,8182.984375,W,-0.40568749999999987,105.70407043440827,-395.26,599.69,994.95,-0.375,0.0,718.75,718.75,0.5146761049976534,0.502009849394301,0.42473439412832525,62.7376051819174,0.41228554568941284,63.984373092185564,0.24166666666666667,155,0.31047179166666666,0.0020024854302251194,-7.765388391218104e-08,29.16466666666667,0.03896437118987388,6.750001831055303e-05,77.91199999999999,0.6314818551101324,2.230000000000004,-0.0005418057025297603
S030,8183.0,8212.984375,W,0.06702083333333313,30.52101808896725,-185.67,291.43,477.1,-0.565,0.0,718.75,718.75,0.4647736437563511,0.35950480747442337,0.47721409234279283,62.75514628106105,0.36933306011779626,63.796551630946325,0.025,24,0.3088915333333333,0.0019346189975174822,1.009665204444767e-06,29.262000000000004,0.02399999999999949,3.6666676613138494e-05,80.29833333333333,1.4466330641258773,4.180000000000007,-0.00033086814530928533
S030,8213.0,8242.984375,W,-0.14471354166666656,15.269703429818415,-49.39,35.14,84.53,-0.065,0.0,718.75,718.75,0.4117997001644799,0.4671953385630041,0.27385335441111947,62.7951646963695,0.3674222219235274,63.796551630946325,0.03229166666666667,30,0.31093089999999995,0.0018417631244724865,5.115839061371275e-07,29.32733333333333,0.016918103387266757,2.1805561470693688e-05,81.468,2.7641615968197915,7.289999999999992,0.004800834635643078
S030,8243.0,8272.984375,W,-0.19173958333333355,15.455888784527508,-59.7,71.43,131.13,0.295,0.0,718.75,718.75,0.4595615645343094,0.42934361238988983,0.48101883878273305,62.721053477930745,0.36610647615979736,63.796551630946325,0.13229166666666667,93,0.31151813333333334,0.002034452243780182,2.905165718632185e-07,29.369333333333334,0.015902480589168707,1.909722740267663e-05,81.63266666666667,1.5156119409517588,4.549999999999997,-0.0026375701599311422
S030,8273.0,8302.984375,W,0.13346875000000002,18.228232547944415,-63.15,46.77,109.92,-0.46499999999999997,44.57531806460054,718.75,751.123046875,0.3836827551470384,0.1874276480775686,0.38269875010683446,62.76578118708546,0.28218547371921393,63.51377803280167,0.014583333333333334,13,0.31015147499999995,0.002147546014107339,-3.784122120258816e-07,29.424666666666667,0.019275776393067538,2.708334068015911e-05,76.69733333333333,2.8371029041768816,7.170000000000002,-0.004898890217797913
S030,8303.0,8332.984375,W,0.042833333333333515,21.541168102547786,-69.34,63.33,132.67000000000002,0.62,0.0,812.5,812.5,0.3146988612370386,0.07210109366946756,0.2556310275029661,62.83626286283711,0.23696574810053808,63.51377803280167,0.005208333333333333,5,0.31070668333333334,0.0019487033508777613,7.275922112609084e-07,29.476000000000006,0.01942506971244495,2.034722774176124e-05,74.50099999999999,0.5136882971867923,1.710000000000008,0.0001643403223579422
S030,8333.0,8362.984375,W,-1.2294895833333341,76.16855042949906,-512.14,540.12,1052.26,1.885,0.0,812.5,812.5,0.4121513151710452,0.3199867076232317,0.23584952830141503,62.78654486924766,0.30753056533901457,63.63961030678928,0.022916666666666665,17,0.31224414999999994,0.0021180436281704276,1.1223679259895685e-06,29.516000000000002,0.024303634844745063,3.881945497489696e-05,70.52066666666666,0.9028987884709014,3.759999999999991,-0.001228403111003446
S030,8363.0,8392.984375,W,2.749036458333332,60.75685838051128,-201.04,146.66,347.7,4.41,0.0,812.5,812.5,0.30135688514155806,0.4951051638428839,0.23213980461973532,62.721276683590276,0.3303929688253037,63.63961030678928,0.07604166666666666,66,0.3156392333333333,0.0019986079519394347,1.215844947874606e-06,29.56533333333333,0.01687865186822919,1.90972274026763e-05,66.24366666666667,1.6433877272945119,5.170000000000002,-0.0029435077429220214
S030,8393.0,8422.984375,W,-2.2600885416666663,97.54951423530639,-265.0,345.25,610.25,-8.715,0.0,812.5,812.5,0.3743918680117576,0.35083605501715465,0.46981360813506556,62.88757248956058,0.35222110044342464,64.07027391856539,0.21770833333333334,154,0.31635455,0.001901758935170277,1.5518103167888274e-07,29.59,0.017888543819997934,2.3055561809776474e-05,63.32133333333333,0.8134524502937394,2.779999999999994,-0.0013061809098798035
S030,8423.0,8452.984375,W,1.258104166666666,67.78185736434185,-274.79,161.14,435.93,3.545,0.0,812.5,812.5,0.49727992759500045,0.09654963281764578,0.49914858064063006,62.78086953309816,0.3459947033890954,63.37191807101944,0.15729166666666666,128,0.3190451,0.0021877657225275937,1.290647051499282e-07,29.63733333333333,0.015040685563571498,1.840278276985235e-05,60.135000000000005,0.9383487269311626,3.5,0.0004655904040772585
S030,8453.0,8482.984375,W,-0.11244791666666719,89.64772447583488,-379.49,338.58,718.0699999999999,-0.22,0.0,812.5,812.5,0.4868841819131345,0.194978186101819,0.32593348844340747,62.81715551367506,0.3561575083595995,64.07027391856539,0.23645833333333333,172,0.32083860000000003,0.0020669120582808244,1.6630759719715665e-06,29.67066666666667,0.018245242911206154,2.3263895199625268e-05,63.26533333333334,0.4092654666866264,1.5,-0.00020500005560982428
S030,8483.0,8512.984375,W,-1.934015625000001,169.63908644460503,-538.12,674.45,1212.5700000000002,-18.04,0.0,812.5,812.5,0.4605521576657258,0.3529390488770295,0.28719790892151165,62.74182657867467,0.3286171605051826,64.07027391856539,0.17083333333333334,121,0.32574987499999997,0.002278975020202794,2.5201015950796395e-06,29.700666666666667,0.01691810338726602,1.1666669831453489e-05,61.798333333333325,1.4696191872575541,4.460000000000001,-0.002479965950511596
S030,8513.0,8542.984375,W,-0.22093750000000062,102.27912747597182,-265.18,628.29,893.47,-3.685,0.0,812.5,812.5,0.3445949212078179,0.35083605501715465,0.29233368669210874,62.70353086273723,0.29142010756129044,63.8200595424354,0.134375,102,0.33103462499999997,0.0026550366666096446,3.1237397796603094e-06,29.729333333333336,0.015040685563570983,1.1597225368170695e-05,60.129666666666665,1.264938689774682,3.3100000000000023,0.0022162158789648108
S030,8543.0,8572.984375,W,0.0841614583333327,130.5723215857666,-386.58,773.37,1159.95,-1.895,0.0,812.5,812.5,0.3036167974968154,0.07902948640996107,0.42934361238988983,62.75015058543158,0.26191889137588414,63.8200595424354,0.221875,141,0.335561525,0.002759725647482919,3.3022289773841657e-06,29.752,0.013012814197295147,1.1875003221300531e-05,63.55800000000001,1.3095047409867084,4.100000000000001,0.002296667289677541
S030,8573.0,8602.984375,W,-2.788432291666667,118.00889212916417,-356.37,657.57,1013.94,-3.55,0.0,812.5,812.5,0.43779751788545657,0.10699797992641419,0.4999609359740019,62.743490635985225,0.31821032672384364,63.37191807101944,0.3177083333333333,175,0.3397254583333334,0.0022882043283465477,1.44553576539056e-06,29.778666666666666,0.01431394036905562,1.9791672035500888e-05,64.98033333333333,0.42716494342219646,1.730000000000004,-8.253474461120373e-05
S030,8603.0,8632.984375,W,4.062713541666667,114.00287186843705,-390.77,680.59,1071.3600000000001,-5.605,0.0,812.5,812.5,0.4803325941903866,0.11110243021644486,0.48968416514853963,62.72608702114402,0.360102322311757,63.8200595424354,0.34791666666666665,208,0.3428108,0.002136930152500706,1.830498326415566e-06,29.819999999999997,0.018439088914586153,2.2569450566800297e-05,67.084,0.6488122481375738,1.9699999999999989,0.001057083620085616
S030,8633.0,8662.984375,W,1.428666666666666,75.9877635529874,-183.72,276.99,460.71000000000004,-4.734999999999999,0.0,812.5,812.5,0.49675596932050603,0.1561249499599599,0.31926021257484205,62.71044640784382,0.34447253729371485,63.7102817447859,0.35104166666666664,221,0.3469106333333334,0.0025555984326354705,2.150302666640262e-06,29.852666666666668,0.019136933459210463,2.2361117176953177e-05,70.04566666666666,0.7719183174979636,2.6499999999999915,0.0003830903816976949
S030,8663.0,8692.984375,W,-1.4480520833333326,91.84398077977923,-305.61,294.76,600.37,-4.57,0.0,812.5,812.5,0.4539742998568923,0.10204080746882047,0.27568569815401495,62.67027309017844,0.32976628459701296,63.60031446463138,0.2760416666666667,170,0.3504978083333333,0.002162373708434919,1.52749932929127e-06,29.898666666666667,0.01978776277287402,2.8125007629396e-05,71.66799999999999,1.7200279067503539,4.980000000000004,0.0030266674877027703
S030,8693.0,8722.984375,W,-0.5285624999999996,72.14014455107683,-193.14,197.93,391.07,-1.295,0.0,812.5,812.5,0.36930866343600566,0.4261919050504779,0.20883013681379098,62.67144962872886,0.3288638528375521,63.7102817447859,0.359375,171,0.354191875,0.0023984172960603923,2.1943532428258526e-06,29.945333333333334,0.01687865186822919,1.9236116329241216e-05,72.489,0.5396687255468245,1.6099999999999994,-0.0008039932736526918
S030,8723.0,8752.984375,W,2.5197864583333343,89.38798272026364,-247.46,268.38,515.84,3.59,0.0,812.5,812.5,0.28798080267325693,0.4742684425044065,0.36795317627458457,62.80758252361197,0.36978940809458116,63.7102817447859,0.03125,27,0.35815293333333337,0.0021911933952884145,2.033867305194043e-06,29.995333333333335,0.017074997966488793,2.0833338984739603e-05,69.31966666666666,1.6844058959236108,5.3999999999999915,-0.0030292716550758612
S030,8753.0,8782.984375,W,-3.993453125000001,150.1297448455796,-747.99,632.03,1380.02,-7.195,0.0,812.5,812.5,0.33538431521001233,0.49999023427963085,0.4541427746009202,62.73281213469032,0.35577147204138304,63.7102817447859,0.06145833333333333,51,0.36114243333333335,0.002232387577360967,1.8397804469890524e-06,30.046666666666667,0.02005547860865467,2.701389621687665e-05,65.674,0.30295874306578485,1.2199999999999989,-0.0003613889869219275
S030,8783.0,8812.984375,W,4.399223958333332,135.01692841845428,-710.38,563.4,1273.78,5.0,0.0,812.5,812.5,0.3199120973017432,0.4956746507286812,0.401385134305777,62.74733295092095,0.3641760740871679,63.7102817447859,0.08333333333333333,64,0.365167325,0.002273744339052877,2.0841709212703252e-06,30.102666666666664,0.021592179654268403,2.7708340849701246e-05,65.10266666666666,0.5175965825063201,1.5700000000000074,-0.0005313890330373864
S030,8813.0,8842.984375,W,-2.681286458333334,85.54234284089728,-280.16,308.82,588.98,2.57,0.0,812.5,812.5,0.26995852304875767,0.4979896651510171,0.22120399317648456,62.76903157429997,0.33653908817219874,63.7102817447859,0.046875,42,0.368316975,0.0021436319120537047,1.3999615342777624e-06,30.150666666666666,0.018961950204438114,2.7430562996573725e-05,66.37666666666667,0.24983105402562733,0.9000000000000057,-8.36805782553665e-05
S030,8843.0,8872.984375,W,-2.507119791666667,142.06545072344818,-555.29,676.1,1231.3899999999999,-4.305,0.0,812.5,812.5,0.35234827309858574,0.3487079325484613,0.280653302210515,62.883903077242046,0.3012896259345913,63.7102817447859,0.016666666666666666,15,0.3733347583333334,0.002520876646446072,2.284024274095123e-06,30.192666666666664,0.01913693345920962,2.5694451414510256e-05,66.872,0.7603963878574551,2.5,-0.0006949307440675846
S030,8873.0,8902.984375,W,2.721255208333334,146.41006825130415,-363.03,684.57,1047.6,-5.535,0.0,812.5,812.5,0.4465142774872938,0.20219874281810515,0.24129821049665678,62.86165237242405,0.3148322439776104,63.94528911499267,0.014583333333333334,14,0.3785663166666666,0.0027075197813476656,2.934631872458739e-06,30.218666666666664,0.015216949614017447,1.020833610252151e-05,65.03233333333334,0.46826405181502145,1.4299999999999926,-0.0005586459848757559
S030,8903.0,8932.984375,W,1.3811354166666676,147.36480109452017,-677.39,605.25,1282.6399999999999,-1.685,0.0,812.5,812.5,1.3850892470242568,0.4548923865414032,2.589914123080253,62.800387696824025,0.37894167791394406,65.19202405202648,0.046875,35,0.3787692833333333,0.007734568672722196,-9.073970777444337e-06,30.244666666666664,0.014544949486180642,6.666668475116089e-06,65.9,2.048096677405636,5.980000000000004,0.0032887508921307772
S030,8933.0,8962.984375,W,-1.621088541666668,112.24451176455352,-555.02,593.53,1148.55,-2.55,0.0,812.5,812.5,1.1065147988165362,0.5246929905906882,1.6143208792063821,62.77545990080613,0.5143451262995674,66.12866246946176,0.09166666666666666,69,0.3633096833333333,0.002025119086964733,-7.355948175984223e-07,30.278666666666663,0.01978776277287402,2.687500729031173e-05,75.259,2.3658280439062622,7.25,0.0040171191452688625
S030,8963.0,8992.984375,W,0.4404114583333332,54.48176127907655,-295.04,271.58,566.62,2.975,0.0,812.5,812.5,0.6034622330077224,0.48052231239385057,0.47999927661982533,62.77033230615213,0.3965566482042502,64.38167441127949,0.1,75,0.36465484166666673,0.002141054771196637,2.005070639396331e-06,30.331333333333337,0.021868292622476707,3.1250008477108786e-05,73.741,1.798242382624396,5.430000000000007,-0.002986285532304018
S030,8993.0,9022.984375,W,1.0239427083333326,149.7904419375993,-433.69,658.08,1091.77,0.09999999999999999,79.67002527454157,812.5,768.1640625,1.507596505110775,0.3805021695623649,2.472736759813574,62.70604317441543,0.42458733889339245,65.4217089351845,0.140625,85,0.368583825,0.0027277762880610974,2.992294865531385e-06,30.38266666666667,0.017499206331208543,2.576389587779238e-05,70.04066666666668,0.7371790073577014,2.819999999999993,-0.0005929862719689308
S030,9023.0,9052.984375,W,-1.075505208333335,82.97030085025764,-305.79,535.72,841.51,-9.365,0.0,625.0,625.0,0.4446391717511577,0.4342088511176262,0.4564164460470528,62.67199698965942,0.3763331787855251,63.85138996137829,0.15625,123,0.37492559166666667,0.003044151355456976,4.0593632973533176e-06,30.414666666666673,0.016069294390924922,2.1041672374585158e-05,73.58433333333333,1.7899584414790817,5.5,0.0022146186563093157
S030,9053.0,9082.984375,W,-0.268302083333333,54.17837361373613,-153.05,186.06,339.11,-1.94,179.1089341941371,625.0,768.4895833333334,0.4772561550153124,0.44858961076789206,0.4951051638428839,62.67393562853276,0.41291786576188355,63.631753079732135,0.13020833333333334,101,0.3813208916666666,0.0022719331151973944,2.057194351452456e-06,30.436,0.014742229591663674,1.715278243076744e-05,70.98866666666666,1.5286088083250375,4.0,-0.0026586812767690096
S030,9083.0,9112.984375,W,1.8595468750000004,69.08908285724377,-260.74,209.04,469.78,4.6899999999999995,200.66348265659676,1000.0,1171.5983072916667,0.5189758544479695,0.4671953385630041,0.4976986970603355,62.76292590370443,0.386661358435066,63.85138996137829,0.06458333333333334,54,0.3865309166666666,0.0024419990703770204,2.786037214094302e-06,30.451999999999998,0.013999999999999702,1.1458336441605777e-05,67.02833333333334,1.511343956733726,4.030000000000001,-0.002458021500114337
S030,9113.0,9142.984375,W,-2.561619791666667,87.90315155477471,-226.99,487.57,714.56,-10.435,0.0,1406.25,1406.25,0.3479837135995815,0.4182664600433822,0.3736070773739289,62.808977117490265,0.3477572734696204,63.58458932791813,0.05520833333333333,46,0.3911539083333333,0.002358889329026953,2.7263959218738934e-06,30.474666666666675,0.014313940369056206,1.4097226046339747e-05,65.32833333333333,0.5840609747468348,1.9200000000000017,-0.0008750349595906486
S030,9143.0,9172.984375,W,0.2679531249999994,78.74898517949222,-213.37,275.06,488.43,-3.17,33.95667183210664,750.0,727.0670572916666,0.4723599421315863,0.4286290625516297,0.362859017617954,62.81534744721116,0.3802960506534078,64.2339474110069,0.06666666666666667,57,0.3958834500000001,0.0020586171363725365,1.066354021905934e-06,30.484000000000005,0.012806248474866146,1.2847225707255961e-05,65.26266666666666,0.24804479882114347,1.1199999999999903,-2.027778327847783e-05
S030,9173.0,9202.984375,W,2.236770833333332,90.93886193991351,-293.61,370.05,663.6600000000001,-1.0150000000000001,0.0,687.5,687.5,0.377444290867319,0.2797704136877236,0.3791423412526693,62.831038950156426,0.2977741491911641,64.2339474110069,0.04375,38,0.3998551916666667,0.0029624681103651647,3.6959252647366686e-06,30.500666666666667,0.014360439485693266,1.2222225537714189e-05,64.143,0.36066743684452557,1.1999999999999957,-0.000311632028980043
S030,9203.0,9232.984375,W,-1.2255624999999999,215.25495288193588,-707.94,1014.91,1722.85,-13.19,0.0,687.5,687.5,0.5872995742638978,0.48940156200086743,0.42756070881480934,62.78942015112586,0.4007394233034585,64.03124237432849,0.09791666666666667,74,0.4043821000000001,0.002539128109542064,2.0894649765258716e-06,30.51733333333333,0.015040685563571844,1.1041669661911272e-05,63.447333333333326,0.41977718957667126,1.4799999999999969,-0.00030458341595687217
S030,9233.0,9262.984375,W,-1.255015625000001,130.09981635827967,-511.14,804.15,1315.29,-7.5649999999999995,0.0,687.5,687.5,0.4871782681222096,0.4979896651510171,0.336944952539234,62.774118095610284,0.38553726803127597,64.2339474110069,0.08541666666666667,69,0.41058505,0.0032652388295753613,4.1443939193776904e-06,30.541333333333334,0.015216949614017447,6.458335085268708e-06,62.245,0.5681065040993628,1.8699999999999974,-3.0034730369664437e-05
S030,9263.0,9292.984375,W,0.3872760416666671,90.78811875521654,-327.68,420.67,748.35,0.81,0.0,687.5,687.5,0.3701949092482679,0.3487079325484613,0.2200753501013283,62.89610235744972,0.31802763172491044,63.56886030125127,0.08229166666666667,74,0.41685207500000004,0.002594143860578093,2.7895152966350055e-06,30.549333333333333,0.012092238098144446,5.763890452444118e-06,62.19133333333333,0.3227252013022156,1.4299999999999997,0.00046555568184561706
S030,9293.0,9322.984375,W,2.2267916666666676,79.62674072285074,-296.04,449.53,745.5699999999999,-3.125,0.0,687.5,687.5,0.5052233674738993,0.21885909977781495,0.24782911619366543,62.737488346815674,0.30999612874013366,63.58458932791813,0.021875,18,0.42377054166666667,0.0028686084864031,3.2004233942120706e-06,30.563333333333333,0.01299572579307834,8.333335593895102e-07,66.34833333333333,1.3153125948694555,4.350000000000001,0.002064826949009046
S030,9323.0,9352.984375,W,-1.3540625000000004,39.461186690957405,-233.33,129.61,362.94000000000005,-1.21,0.0,687.5,687.5,0.3635625590940299,0.4313858481684349,0.250154032409145,62.86988653978456,0.3231869551050238,64.09368143584827,0.071875,59,0.43114795833333336,0.0031555117688362192,4.351244886947939e-06,30.573999999999998,0.013063945294843338,1.3888892656491849e-05,66.79566666666668,1.2381052279816747,4.3500000000000085,-0.001774618536951642
S030,9353.0,9382.984375,W,0.5711666666666676,140.7425319850982,-759.58,658.14,1417.72,0.45,0.0,687.5,687.5,0.8672173731090852,0.7335434121440939,0.47323777644600135,62.928975173787464,0.47249364388114445,68.17624219623724,0.16458333333333333,121,0.4390591833333333,0.0031382404172384474,2.9552330065193783e-06,30.599333333333334,0.013399834161494236,1.222222553771283e-05,61.356999999999985,1.225523425588702,4.280000000000001,-0.0021951742065902252
S030,9383.0,9412.984375,W,-1.420869791666667,126.90589265000875,-562.5,1116.51,1679.01,-1.475,0.0,687.5,687.5,0.3978893969713471,0.45547880027505117,0.27230370095824175,62.85469021182836,0.3391190180768043,63.4428877022476,0.18958333333333333,131,0.44485651666666665,0.0034812129423122395,4.726049893134198e-06,30.627333333333336,0.015260697523012803,1.875000508626433e-05,59.93666666666668,2.7019811661486877,8.969999999999999,0.003993056638741493
S030,9413.0,9442.984375,W,0.8902135416666673,43.19663516392973,-129.78,157.86,287.64,-0.265,0.0,687.5,687.5,0.4883528419738017,0.43260656201680525,0.3128314214779086,62.940830114490986,0.35623657698869826,64.04685784642366,0.25625,164,0.45550098333333333,0.0034897736960614253,4.4894256970013325e-06,30.651999999999997,0.011944315244780273,1.09027807353473e-05,70.80566666666665,1.5486998489772714,6.3700000000000045,0.002690382674257454
S030,9443.0,9472.984375,W,-0.2951354166666665,41.38496894861099,-129.33,171.12,300.45000000000005,-4.1,0.0,687.5,687.5,0.34760465050910283,0.4416654382844553,0.49881695979086355,63.115740888336475,0.3993771605546263,64.09368143584827,0.020833333333333332,20,0.46351895833333334,0.0032011886682809768,4.237273067836657e-06,30.674,0.017435595774163464,2.0833338984739444e-05,72.633,1.968575034553336,5.920000000000002,-0.003191632810230254
S030,9473.0,9502.984375,W,-0.26492187499999975,73.34974451851484,-300.32,456.79,757.11,-3.05,0.0,687.5,687.5,0.5182603110406969,0.12426432820358742,0.49997287252798917,63.042249169361504,0.3224691222526322,63.631753079732135,0.2375,160,0.4722523083333333,0.003798399006589998,5.136896575764043e-06,30.692,0.011944315244779024,5.347223672749363e-06,69.298,0.6717608701514747,1.9899999999999949,0.0005770140454139676
S030,9503.0,9532.984375,W,0.4343906250000001,32.964727263955865,-117.11,99.99,217.1,1.005,0.0,687.5,687.5,0.5366393303079204,0.49454928273687293,0.496585563847986,63.00393374796741,0.3766062688457085,64.17164482853778,0.18958333333333333,133,0.48069745,0.003834627841242655,5.470336987396097e-06,30.698666666666664,0.012310790208412664,8.680557910307405e-06,70.23933333333333,0.5493264562676331,1.7800000000000011,0.000939166921432
S030,9533.0,9562.984375,W,0.10298958333333316,33.20582789931698,-89.12,104.42,193.54000000000002,-0.9,0.0,687.5,687.5,0.46881481033441,0.3852251776558744,0.32196600655193397,62.88900408664176,0.36118784174261437,63.8200595424354,0.18645833333333334,96,0.48747702499999995,0.003169413461674205,3.4876756422731275e-06,30.720000000000002,0.016124515496596756,7.56944649778806e-06,67.384,1.192816275319326,3.930000000000007,-0.0016733337872541763
S030,9563.0,9592.984375,W,-0.5696822916666668,30.86783104107432,-119.79,111.35,231.14,-0.24,0.0,687.5,687.5,0.4589661824113213,0.2044401866819622,0.2214123697989794,63.06964577821809,0.2868473637570133,63.8200595424354,0.015625,15,0.49632782500000006,0.003620978451244221,5.086531110712645e-06,30.726,0.014047538337136685,1.2500003390842662e-06,69.54966666666665,1.2161866176244864,4.0,0.0016022573790845744
S030,9593.0,9622.984375,W,2.159895833333334,109.21972284015747,-489.44,684.67,1174.11,2.0700000000000003,38.6328057800294,765.625,732.3404947916666,0.5578424069947234,0.5192799752622215,0.4591363703707453,63.07767530207286,0.38676455318553654,63.96092557178953,0.022916666666666665,19,0.5088939916666667,0.004404157540506158,5.253786364416876e-06,30.754666666666665,0.014313940369055622,9.23611361656708e-06,72.31366666666666,2.664015119243048,6.700000000000003,0.0046570498744167394
S030,9623.0,9652.984375,W,-1.5564531250000007,61.03238818338665,-411.43,386.77,798.2,-0.405,108.48768804283121,796.875,873.974609375,0.5116598381058998,0.43481193052922956,0.4797448956795221,63.06923729804878,0.3892492463003413,64.13267497929586,0.059375,50,0.5118406916666667,0.002570949003759224,1.562098731038067e-06,30.776,0.011718930554164382,5.6250015258792e-06,72.966,1.1813173437593598,3.950000000000003,-0.0017636810339846567
S030,9653.0,9682.984375,W,-0.5296145833333333,100.91499841996459,-466.93,836.79,1303.72,-3.525,0.0,984.375,984.375,0.6206480428194031,0.31137122527708877,0.4167499916683329,63.062557592986515,0.3510054575912252,64.42049363362563,0.36770833333333336,159,0.5132180583333333,0.0025087989799099392,-8.538695892657838e-08,30.782,0.012220201853215313,9.027780226719704e-06,68.11666666666666,2.6558016157503586,8.099999999999994,-0.004756112401289169
S030,9683.0,9712.984375,W,-0.4048020833333327,161.36477382704223,-841.66,962.7,1804.3600000000001,0.87,0.0,984.375,984.375,1.7102580620739343,1.6473750031615955,3.048376588676158,63.04417959213681,0.6544421704023231,72.18725649309579,0.04583333333333333,31,0.5106450416666667,0.0180329844841778,-1.298082101259248e-05,30.791999999999998,0.013012814197295147,7.708335424352977e-06,64.91366666666667,0.7136641756145226,2.5999999999999943,0.0012018406037979067
S030,9713.0,9742.984375,W,1.0350937500000001,230.17675340352474,-743.37,751.57,1494.94,-14.280000000000001,0.0,984.375,984.375,31.57650333952513,28.79839584215755,19.06526616428238,65.29902143070757,7.83337465753596,124.18131904598211,0.08645833333333333,36,0.620723675,0.36145440866691986,-9.515551300876547e-05,30.761333333333337,0.0824108946411544,4.4791678817187396e-05,70.32266666666668,1.9949418259410192,6.5,0.0035489592960501544
S030,9743.0,9772.984375,W,-0.2010833333333333,20.69416652085934,-227.09,71.49,298.58,1.21,0.0,984.375,984.375,0.18591926264435923,0.032258047015004204,0.2363252195069329,65.78256326120436,0.1298875884950605,66.36264009214823,0.016666666666666666,11,0.3775734333333334,0.009614517533165959,-1.6079743077187255e-05,30.951333333333334,0.017074997966487235,2.0555561131607937e-05,79.52333333333333,4.28687246784361,13.620000000000005,0.007671877081129853
S030,9773.0,9802.984375,W,-0.01295833333333305,65.23511848257627,-501.91,320.2,822.11,0.975,0.0,984.375,984.375,0.47981726664950275,0.1428261375083551,0.4721359194012767,65.82773113822,0.2746601431276009,66.36264009214823,0.10833333333333334,84,0.3696515083333333,0.0023213753645767673,-4.1246864487539007e-07,30.960666666666665,0.012364824660660675,-2.361111751603615e-06,95.57433333333334,4.471363463444034,14.679999999999993,0.008043300792996092
S030,9803.0,9832.984375,W,0.25109895833333346,56.67794524116979,-452.1,260.67,712.77,1.25,0.0,984.375,984.375,0.3497751633986546,0.1359125535858341,0.3121091305537215,65.8458828234307,0.24351290801391173,66.36264009214823,0.075,61,0.37409285000000003,0.0031607149392977535,4.640382335173158e-06,30.98200000000001,0.015143755588801065,1.9722227572219033e-05,104.87266666666667,0.9044959308304764,3.1599999999999966,0.0013888892656492144
S030,9833.0,9862.984375,W,-0.29192708333333334,8.418887646418408,-28.85,30.03,58.88,-0.03,0.0,984.375,984.375,0.11110243021644486,0.11557806855349137,0.1356408400888169,65.87907059515595,0.11697229784230198,66.36264009214823,0.017708333333333333,16,0.38343479999999996,0.0031606318134195883,4.397653970717763e-06,31.00666666666666,0.012736648783029532,-2.5694451414510295e-06,102.872,1.305328566555817,4.390000000000001,-0.002330556187759381
S030,9863.0,9892.984375,W,0.08347916666666662,10.553106033670812,-32.02,25.25,57.27,0.765,0.0,984.375,984.375,0.08533405557962581,0.10642856726723121,0.07880950133074055,65.87988040263511,0.08958125454055287,66.46803743153546,0.007291666666666667,7,0.39226421666666667,0.0032025842564594948,4.5651483737924185e-06,31.02666666666666,0.01639783183499837,1.229167000099552e-05,93.98533333333332,4.196368853610888,13.230000000000004,-0.007523960374338212
S030,9893.0,9922.984375,W,0.017281249999999908,10.959183620563703,-32.02,40.73,72.75,0.58,0.0,984.375,984.375,0.4289795303974305,0.3146988612370386,0.2363252195069329,65.919791105013,0.2736616002490336,67.05967491719595,0.13541666666666666,82,0.40497995000000003,0.0036790990447164267,5.649801445801172e-06,31.032666666666664,0.016110727964792734,-1.944444971909144e-06,79.23533333333334,4.065139385337511,12.16000000000001,-0.007203057509509959
S030,9923.0,9952.984375,W,0.004963541666666638,12.141045092419796,-89.77,63.06,152.82999999999998,0.63,0.0,984.375,984.375,0.30547663122114954,0.2599996661322643,0.09090593428863095,65.89475448500224,0.22378865315179994,66.46803743153546,0.07916666666666666,58,0.41622224166666666,0.003823312582032829,5.909333851273285e-06,31.026666666666657,0.012736648783028263,-1.4513892826033982e-05,75.88166666666666,0.3461992040558285,1.3299999999999983,0.0005682293208087364
S030,9953.0,9982.984375,W,0.011447916666666646,7.914344380050525,-21.9,25.29,47.19,-0.23,0.0,984.375,984.375,0.40385377708260806,0.26339134382131846,0.17399263633843817,65.94168144723038,0.25384951971876024,66.46803743153546,0.14583333333333334,98,0.4271869583333333,0.003784168222995714,5.689341170068673e-06,30.99533333333334,0.021249836600680055,-3.069445277084943e-05,77.00399999999999,0.5099712410192014,1.6899999999999977,0.00010083336068613195
S030,9983.0,10012.984375,N2,-0.20153645833333333,9.49686945588979,-23.62,57.35,80.97,-0.11499999999999999,0.0,984.375,984.375,0.4480753110527292,0.33653249956562725,0.25828082463667335,65.92894911666946,0.27711616988188037,66.46803743153546,0.15104166666666666,97,0.4382797916666667,0.003732246425625894,5.785329043329288e-06,30.976000000000006,0.01171893055416438,6.458335085268711e-06,75.31700000000001,0.13281942628998208,0.6099999999999994,-5.1909736303641424e-05
S030,10013.0,10042.984375,W,0.19616666666666666,9.315510525313265,-31.13,35.27,66.4,0.53,0.0,984.375,984.375,0.42914138275035757,0.297201939858332,0.21885909977781495,65.93741785109118,0.278855632788446,66.46803743153546,0.159375,103,0.4495328333333333,0.003943100083972284,6.11843004514704e-06,30.962,0.015143755588800408,-1.1388891978323319e-05,74.63799999999999,0.26074764300628617,1.0799999999999983,-0.00014416670577438914
S030,10043.0,10072.984375,W,0.013822916666666855,53.30049027653162,-367.03,479.94,846.97,-0.04,0.0,984.375,984.375,0.4190439991980423,0.285583892616902,0.29060633153900056,65.92011166620006,0.2687215083487099,66.46803743153546,0.13541666666666666,91,0.4624193083333334,0.005287566924392593,8.477039408919108e-06,30.927333333333333,0.015260697523012472,-1.291667017053742e-05,74.04799999999999,0.34284496010101584,1.0600000000000023,-0.0005263890316810545
S030,10073.0,10102.984375,W,-0.055354166666666677,10.43907345323645,-93.05,40.29,133.34,0.235,0.0,984.375,984.375,0.07198059875565237,0.3121091305537215,0.09090593428863095,65.82070582981783,0.21236932748186307,66.46803743153546,0.010416666666666666,10,0.47935215833333333,0.004566620384186086,7.2135520870095675e-06,30.91266666666667,0.012364824660660675,-2.6388896047334516e-06,73.462,0.42859771347966685,1.1699999999999875,-0.0006626390686412381
S030,10103.0,10132.984375,N2,-0.008833333333333323,17.70672642297428,-50.87,150.99,201.86,-0.11499999999999999,0.0,984.375,984.375,0.139283726964862,0.3487079325484613,0.07198059875565235,65.80631521995285,0.23655972932693042,66.46803743153546,0.014583333333333334,13,0.49227078333333335,0.0037001252235190924,5.586454206394908e-06,30.89,0.013662601021279173,-1.0277780565803969e-05,73.90033333333334,0.5577961595023354,2.030000000000001,0.0009867711010121247
S030,10133.0,10162.984375,W,-0.036057291666666665,10.89656044865998,-31.76,89.33,121.09,-0.14500000000000002,0.0,984.375,984.375,0.2459546840318806,0.35398126274564307,0.07198059875565235,65.82365601706498,0.23597361528062608,66.46803743153546,0.028125,23,0.5036304416666667,0.004375404792313188,6.756435643564354e-06,30.86866666666667,0.011469767022723258,-1.2916670170537422e-05,76.63566666666665,0.8871628311019844,2.6499999999999915,0.001573715704675483
S030,10163.0,10192.984375,W,0.000744791666666685,15.20200835544552,-69.45,111.06,180.51,0.06,0.0,984.375,984.375,0.20453835214941962,0.36890886408434265,0.04559597630883184,65.80500265940863,0.2532291358168924,66.46803743153546,0.025,19,0.5161539833333334,0.004119537449729301,6.210166181143168e-06,30.847333333333335,0.012364824660661862,-3.888889943817917e-06,78.12333333333332,0.44396196033243723,1.6299999999999955,-0.0003033334156177893
S030,10193.0,10222.984375,W,0.10789583333333329,12.861694089167102,-39.91,120.02,159.93,0.3,0.0,984.375,984.375,0.3108009366495253,0.43942903097529745,0.06441510347391795,65.77433980403961,0.2772153363928308,66.46803743153546,0.026041666666666668,22,0.5261684666666667,0.0035163094027055707,4.341643104829411e-06,30.831999999999994,0.010770329614269967,9.027780226716e-07,76.718,0.05509990925582128,0.20000000000000284,1.4583337289316323e-05
S030,10223.0,10252.984375,W,-0.0706770833333334,36.903654465037626,-250.38,338.16,588.54,0.215,0.0,984.375,984.375,0.504896811170912,0.3992166265707825,0.1067949667847486,65.67331264337459,0.32010120104353507,67.05967491719595,0.03854166666666667,30,0.539204575,0.005085810680482345,8.393496851534515e-06,30.816666666666663,0.012995725793078342,-1.6666671187790202e-06,76.39833333333333,0.29836312700391665,0.9699999999999989,0.0003051042494314908
S030,10253.0,10282.984375,N2,-0.056739583333333225,30.769390441145937,-163.91,300.43,464.34000000000003,-0.12,0.0,984.375,984.375,0.3904666345647645,0.07880950133074056,0.13678792892649552,65.70333293110995,0.22858275756260688,66.46803743153546,0.0020833333333333333,2,0.5524113833333334,0.003705504055193512,5.2074276278829275e-06,30.802000000000003,0.014236104336041444,-1.4166670509621688e-05,77.39133333333332,0.34028158274516745,1.0600000000000023,0.0005329168112296046
S030,10283.0,10312.984375,W,0.06212499999999987,21.664156915499273,-130.11,226.17,356.28,0.02,0.0,984.375,984.375,1.148275805888502,0.5279513603438188,0.5347921130370816,65.77161639819674,0.30396222647560595,68.71681017043792,0.06979166666666667,48,0.5610699166666666,0.0031597591194670966,3.3020846631088794e-06,30.767999999999997,0.016613247725835792,-1.4930559605728741e-05,79.36200000000001,0.5318170111357234,1.960000000000008,0.0003490973169209306
S030,10313.0,10342.984375,W,-0.06909895833333331,12.70674280363411,-42.6,90.34,132.94,0.095,0.0,984.375,984.375,0.5127698730506048,0.18483053424390922,0.499321371059984,65.82722193409988,0.3412268630884042,66.46803743153546,0.19270833333333334,133,0.571330075,0.003975544870753567,5.3866019386398456e-06,30.759333333333327,0.013399834161494236,-7.777779887635436e-06,80.456,0.5801643445323638,2.1700000000000017,0.000491527911113257
S030,10343.0,10372.984375,W,0.09008854166666679,70.90391261640697,-306.89,485.06,791.95,-0.89,0.0,984.375,984.375,0.3085145160235126,0.5122617586498137,0.5111506202649295,65.80696708929271,0.4061496137481683,66.88049042882386,0.25104166666666666,163,0.5790704666666666,0.006387601661204477,9.495075492370735e-06,30.758666666666667,0.013349989596333572,-1.180555875801808e-06,79.459,1.068298803394132,3.3699999999999903,-0.0011057294666149816
S030,10373.0,10402.984375,N2,-0.05611458333333329,9.033905913245425,-31.69,31.35,63.040000000000006,-0.16,0.0,984.375,984.375,0.16894279110594407,0.4969426928032603,0.4,65.62827431118936,0.39452832845405195,66.46803743153546,0.11041666666666666,89,0.5917755416666667,0.0036229487780348067,4.679581347542684e-06,30.75133333333333,0.012578641509408538,-2.222222825038696e-06,79.47000000000001,0.41344084623236504,1.6200000000000045,0.0002316667295102896
S030,10403.0,10432.984375,N2,0.010130208333333335,12.04222166110262,-41.19,82.67,123.86,-0.025,0.0,984.375,984.375,0.2622828963320585,0.4671953385630041,0.36110844016106236,65.55240455123766,0.3665254209631032,66.46803743153546,0.06458333333333334,52,0.60000705,0.0038583899251069327,5.145358166601064e-06,30.749333333333333,0.01314872194887707,1.0416669492368884e-06,90.148,6.050156141235806,18.89,0.01088375295240694
S030,10433.0,10462.984375,N2,0.037770833333333316,9.9506561042886,-40.57,30.88,71.45,-0.08499999999999999,0.0,984.375,984.375,0.43180318787099703,0.35398126274564307,0.194978186101819,65.48480781990382,0.3184385711509913,66.46803743153546,0.38958333333333334,165,0.6102457250000001,0.003895941272577784,5.580554248197229e-06,30.740000000000002,0.013416407864998451,-3.819445480535259e-06,107.78933333333335,4.228298265522694,13.719999999999999,0.0075808353897665465
S030,10463.0,10492.984375,N2,-0.04029687499999994,16.81078292239682,-72.13,98.25,170.38,0.28500000000000003,0.0,984.375,984.375,0.5120043334777548,0.3146988612370386,0.22572943104891455,65.53873573637898,0.3213794388995238,66.46803743153546,0.121875,90,0.6219579000000001,0.004253166237052108,6.264015588111864e-06,30.742,0.014236104336041446,6.944446328245928e-06,115.58833333333334,0.8922782949033087,2.8500000000000085,0.0012013544925549295
S030,10493.0,10522.984375,N2,0.032593750000000435,91.51831803684601,-515.46,386.63,902.09,-0.165,0.0,984.375,984.375,0.7371813989314675,0.2848534589145014,0.5332641556697976,65.55969717987014,0.3292375288385737,66.88049042882386,0.253125,93,0.6280540916666666,0.003247516153400512,2.5944733600460006e-07,30.743333333333336,0.01299572579307834,1.3888892656491829e-06,110.11533333333334,3.542275853490554,12.129999999999995,-0.0062250016886397815
S030,10523.0,10552.984375,N2,0.0530989583333333,39.076396568540886,-471.81,179.3,651.11,0.44,0.0,984.375,984.375,0.37740979192605306,0.07198059875565237,0.4833153732295301,65.56775026274146,0.26084890154062174,66.46803743153546,0.14270833333333333,68,0.6335205333333334,0.0035201814937427444,4.236389604055346e-06,30.743333333333336,0.01490711984999828,-5.972223842291495e-06,91.932,6.364207413339072,19.489999999999995,-0.0114346558796267
S030,10553.0,10582.984375,N2,-0.09764583333333364,52.7497152004514,-287.33,340.36,627.69,0.36,0.0,984.375,984.375,0.6922061149365524,0.3222624421139116,0.654769328285839,65.83351898977291,0.21376175962343757,66.55824516917495,0.04375,26,0.6477842333333332,0.0049468144880204425,6.592994409991982e-06,30.746000000000002,0.01306394529484334,2.0833338984737756e-06,77.66433333333335,2.1012911639169753,6.890000000000001,-0.0035148273423468274
S030,10583.0,10612.984375,N2,0.07611979166666674,32.63193185293203,-301.65,217.5,519.15,-0.4,0.0,984.375,984.375,0.16697562509240682,0.24016912082368583,0.14311453746329664,65.9065012793618,0.18190413267252972,67.01492371106603,0.0125,12,0.6569340166666666,0.003948285714465901,5.493333087384188e-06,30.77266666666667,0.014360439485691705,8.750002373589865e-06,75.32766666666666,0.7594633339112264,2.280000000000001,0.0012108683840246265
S030,10613.0,10642.984375,N2,-0.04252604166666674,33.550678658752396,-249.72,249.85,499.57,-0.745,0.0,984.375,984.375,0.22813213459162943,0.24016912082368586,0.11178398687746927,65.9104255854338,0.17726857305884294,66.55824516917495,0.016666666666666666,14,0.6666815916666666,0.003520313886326604,4.469964537208271e-06,30.772,0.01077032961426878,-4.0972233336650955e-06,75.84066666666666,0.6624043746500743,2.030000000000001,-0.0005081251378377677
S030,10643.0,10672.984375,N2,0.07223437500000013,63.01487188021956,-251.22,634.39,885.61,-0.13,0.0,984.375,984.375,0.14058641445941905,0.4751541690598957,0.233482095435365,65.78334932322277,0.30773660628783295,67.66091929614909,0.0125,10,0.6784684666666666,0.00527672701892207,4.1306495580103985e-06,30.766,0.014047538337136685,-8.472224520460029e-06,76.377,0.6141180668242859,1.6499999999999915,-0.0010628127883064186
S030,10673.0,10702.984375,N2,-0.07108854166666631,144.03024510466136,-703.09,537.25,1240.3400000000001,1.52,0.0,984.375,984.375,0.8425525195878824,0.5073151945262652,0.9252533436848526,65.81692032833072,0.36468958604266843,68.70953354520753,0.12604166666666666,63,0.6805077083333333,0.0036118051451590276,6.689886797386918e-07,30.774,0.01583245611605022,1.569444870183579e-05,76.03433333333332,0.2830157043149539,1.039999999999992,-1.8402782769866877e-06
S030,10703.0,10732.984375,N2,0.2129635416666669,88.09346746861826,-635.95,467.93,1103.88,0.98,0.0,984.375,984.375,0.6288345908967901,0.4814156911737852,0.6590704931420883,65.94104078151639,0.3579091836292288,69.7853852894716,0.07604166666666666,50,0.6860594416666667,0.004401582980011913,5.6124162360070014e-06,30.793333333333337,0.015563490039904669,1.0902780735346104e-05,75.65833333333333,0.25800624454113924,0.7900000000000063,-0.0003487848168361581
S030,10733.0,10762.984375,N2,-0.14090104166666667,15.352238553878951,-102.8,88.0,190.8,-0.125,0.0,984.375,984.375,0.5079564432743116,0.4997872811395753,0.15376848917736327,65.7223630194066,0.37383036973378814,66.73829485385434,0.21145833333333333,148,0.6913336583333334,0.0035412235750180926,3.997001301269891e-06,30.797333333333334,0.014126413400277761,9.23611361656708e-06,75.525,0.8621281807248854,2.519999999999996,0.0012644795096786862
S030,10763.0,10792.984375,N1,-0.08217187499999998,10.40826296454932,-38.98,30.11,69.09,-0.28500000000000003,0.0,984.375,984.375,0.4136925102724916,0.4007791348493027,0.22329358710376496,65.73298678700984,0.30185215827507555,66.73829485385434,0.16354166666666667,116,0.6990740666666666,0.003444905885829423,3.5111997371961035e-06,30.81,0.010327955589886225,5.8333349157265775e-06,77.90833333333333,0.9007037372089808,2.299999999999997,0.0015295490260278418
S030,10793.0,10822.984375,N2,0.012473958333333179,11.512748543930776,-36.77,62.61,99.38,-0.07,0.0,984.375,984.375,0.41234082577065084,0.4287201864431962,0.11110243021644485,65.69244122806725,0.3521346763117268,66.73829485385434,0.17291666666666666,129,0.7060778166666667,0.003668663223808128,4.401471680086728e-06,30.820666666666664,0.011234866364234906,-8.333335593895112e-07,80.01133333333334,0.5601948073859868,1.9300000000000068,0.0009415974776468853
S030,10823.0,10852.984375,N2,0.05981250000000005,9.457704672550157,-29.96,29.77,59.730000000000004,0.175,0.0,984.375,984.375,0.4356060194334631,0.42934361238988983,0.20138409955990955,65.71847416233683,0.33364718031268203,66.73829485385434,0.17291666666666666,129,0.712654625,0.003820011330835075,5.1567420672585944e-06,30.858666666666668,0.02348521993841214,3.534723181077352e-05,80.00299999999999,0.5404698573155283,1.5400000000000063,-0.0009096877467685958
S030,10853.0,10882.984375,N2,-0.04993749999999998,9.472376884935503,-26.96,34.04,61.0,0.30000000000000004,0.0,984.375,984.375,0.21039603859282988,0.38608472506764047,0.03225804701500421,65.75783547301573,0.2557483863593608,66.30987860040162,0.16041666666666668,125,0.7189964416666667,0.0032389436029767312,2.5236076724196194e-06,30.919333333333338,0.016918103387265668,1.5416670848705955e-05,79.46499999999999,0.3262284475639719,0.9099999999999966,-0.0005526737610334608
S030,10883.0,10912.984375,N2,-0.4242708333333338,70.04619573218555,-620.08,514.79,1134.87,0.295,0.0,984.375,984.375,0.4360043880385711,0.44626147666536886,0.4915949365048649,65.78369213463084,0.3332528611148733,68.8839603971781,0.20208333333333334,145,0.7239929833333333,0.004318836587136499,7.153873468390099e-07,30.93933333333333,0.017688665548561758,8.33333559389511e-06,79.10600000000001,0.24574512541791493,0.730000000000004,-0.0003426389818356612
S030,10913.0,10942.984375,N2,0.5146562499999999,40.735857054762,-226.44,312.53,538.97,-0.13,0.0,984.375,984.375,0.08538490263051322,0.3919712911114225,0.06441510347391793,65.78555232403771,0.25751457168154424,66.30987860040162,0.190625,136,0.7250072166666668,0.003328496758256223,3.0750338202674105e-06,30.958666666666666,0.01765093639316459,1.201389214786545e-05,78.18833333333332,0.4701140523556201,1.480000000000004,-0.00030767369457294214
S030,10943.0,10972.984375,N2,0.03491145833333344,61.22126894590087,-424.87,501.78,926.65,0.725,0.0,984.375,984.375,0.33849518911729837,0.35827125188962006,0.3005185766813019,65.77810655950387,0.2976812275220633,67.38694235532579,0.18958333333333333,110,0.7311674749999999,0.0036687213984404753,4.6401403646214115e-06,30.961333333333336,0.01117536974282657,5.069445819619526e-06,79.01033333333334,0.5154188156786255,1.6100000000000136,0.0008990627438863799
S030,10973.0,11002.984375,N2,-0.17265104166666662,10.141795801856858,-30.27,26.63,56.9,0.16,0.0,984.375,984.375,0.2957874817753449,0.0,0.11110243021644486,65.72301344565314,0.17994060824330474,66.30987860040162,0.084375,40,0.738502175,0.0035865119444535966,3.784095427543242e-06,30.972666666666672,0.012364824660660675,-3.6111120906878814e-06,81.39333333333335,0.7201496758004936,2.269999999999996,0.0005699307101591543
S030,11003.0,11032.984375,N2,0.019479166666666582,13.307435548390455,-57.8,88.8,146.6,-0.135,0.0,984.375,984.375,0.3869395588747967,0.0,0.17116012950028858,65.77130913372369,0.23826421500685296,66.30987860040162,0.15833333333333333,81,0.7451430666666666,0.00351017806227674,3.964205502442906e-06,30.96933333333334,0.012092238098144446,-2.291667288321156e-06,79.743,0.577864747727932,1.6700000000000017,-0.001023437777625265
S030,11033.0,11062.984375,N2,1.2833229166666673,85.61209510842531,-506.02,692.54,1198.56,-0.08,0.0,984.375,984.375,3.2634171497152424,0.6189279696355806,3.1407517940132146,65.74440821194429,0.5399433870604387,70.77428911688199,0.15416666666666667,103,0.7552749750000001,0.00904387704883116,1.1310653024808223e-05,30.972000000000005,0.014000000000000023,3.819445480535617e-06,79.247,0.31958462624684275,0.980000000000004,-0.00031975703118409187
S030,11063.0,11092.984375,N2,-1.3558906249999998,96.28081275914197,-462.12,754.03,1216.15,-1.185,0.0,984.375,984.375,0.41218290632180377,0.508895479813881,0.38499977453095846,65.81644689883099,0.3408092526546067,66.64082832618455,0.015625,14,0.7658126583333333,0.004024118877667152,5.253693916475116e-06,30.958000000000002,0.012220201853215313,-2.7777785312983712e-06,78.21033333333334,0.3266545916135603,1.0699999999999932,-6.545140664371994e-05
S030,11093.0,11122.984375,N2,0.019786458333333336,73.55901989648505,-363.48,736.66,1100.1399999999999,-0.005,0.0,984.375,984.375,0.7757612748491353,0.7350351642665358,0.8633651055929673,65.84021851629919,0.3979121251086131,68.30812543175226,0.014583333333333334,10,0.7876247083333333,0.019104751169711616,2.1625271274216385e-05,30.965333333333337,0.01431394036905562,1.381944819320939e-05,81.93766666666667,2.7327320680146387,9.710000000000008,0.004771077683126544
S030,11123.0,11152.984375,N2,0.11257812500000001,12.2833493358023,-62.3,70.69,132.99,0.34,0.0,984.375,984.375,0.3465542185414699,0.04564354645876384,0.10152910775842672,65.58434716978033,0.213283021038617,66.1362230551458,0.1375,94,0.7985254333333333,0.002528688196586443,1.2628315057594161e-06,30.972000000000012,0.010770329614268779,2.0833338984737856e-07,96.60200000000002,3.5537054839514575,11.799999999999997,0.0062267378002218415
S030,11153.0,11182.984375,N2,-0.006046874999999948,111.21104356951571,-652.97,766.55,1419.52,0.425,0.0,984.375,984.375,2.0176951578471907,1.36442270046916,1.3057859855008995,65.68610263273027,0.47157105059632404,69.89992846920518,0.13958333333333334,94,0.822408675,0.015381582274570293,5.315761641645409e-06,30.980666666666675,0.012364824660661237,2.361111751603639e-06,94.93866666666666,4.010487695474898,13.489999999999995,-0.007156251941257577
S030,11183.0,11212.984375,N2,-0.07204687499999998,10.481090832019953,-29.82,29.13,58.95,-0.85,0.0,984.375,984.375,0.48358021711903065,0.2795007329547138,0.478576402744524,65.52248256453413,0.4096586957301388,66.7757440991862,0.16979166666666667,130,0.8211488749999999,0.0029908134695054173,2.3062859988840107e-06,30.962000000000003,0.014236104336041444,5.555557062596742e-06,79.08133333333333,3.4617468936297993,11.850000000000009,-0.00616479333897389
S030,11213.0,11242.984375,N2,0.08111979166666713,97.78527673207753,-450.54,704.61,1155.15,-2.535,0.0,984.375,984.375,0.991298404135539,0.9623776753076495,0.9507392728453767,65.80241284120447,0.46071242912906235,67.60917097554147,0.18333333333333332,116,0.82988225,0.02047605152295807,-7.226823574984696e-06,30.980000000000004,0.02049390153191963,3.2638897742752266e-06,76.07833333333332,1.3944797914953402,3.530000000000001,0.0023868409252498167
S030,11243.0,11272.984375,N2,0.08010937500000002,11.542649304071709,-24.26,34.48,58.739999999999995,-1.105,0.0,984.375,984.375,0.4975973086716026,0.3660254217605657,0.32471775939096537,66.02297957091757,0.3825923568669807,66.46803743153546,0.37395833333333334,215,0.821501175,0.002916901931451995,9.691762611697826e-07,31.031999999999993,0.023295206946208128,3.451389825138289e-05,78.328,0.08607748447377864,0.37000000000000455,5.250001424154226e-05
S030,11273.0,11302.984375,N2,-0.15597395833333316,25.034763960369293,-159.95,95.35,255.29999999999998,-2.0300000000000002,0.0,984.375,984.375,0.504906481990037,0.44287864371129426,0.4637885578460177,65.68624008435339,0.4020119160983928,69.07966415668217,0.21458333333333332,93,0.8254194666666665,0.0033706134355962823,1.7797530869555874e-06,31.082666666666665,0.018245242911204957,2.5763895877792385e-05,77.39666666666666,0.5202008159248594,1.5700000000000074,-0.0009061808013728318
S030,11303.0,11332.984375,N2,0.009312499999999939,10.115599707580882,-23.13,35.8,58.92999999999999,-1.58,0.0,984.375,984.375,0.17116012950028858,0.12401959270615269,0.07880950133074055,65.45420863289769,0.13960267821899083,66.09841147864296,0.052083333333333336,43,0.8294337666666666,0.0030331187325186603,1.6906636530663177e-06,31.107333333333333,0.014360439485691705,1.2777781243972504e-05,77.57000000000001,0.5667803807472511,1.6199999999999903,0.0010127780525114054
S030,11333.0,11362.984375,N2,0.00406770833333366,18.546400677467464,-116.52,97.76,214.28,-1.04,0.0,984.375,984.375,0.43463221800800217,0.19577791769133604,0.24873813483706556,65.549734722199,0.2957806326835531,67.80855403265875,0.17708333333333334,83,0.8349962666666665,0.003449378629389484,2.4394138561777966e-06,31.14666666666666,0.014681810363697454,1.7430560283898176e-05,77.87366666666667,0.42840388524018863,1.4399999999999977,-0.00023906256484987015
S030,11363.0,11392.984375,W,-0.005364583333332954,75.77304688984893,-661.58,531.23,1192.81,-1.355,0.0,984.375,984.375,0.6626834127662737,0.24996527536617744,0.4915419598202059,65.64680688610613,0.3474247999497307,68.09552114493287,0.2864583333333333,141,0.8394909583333333,0.00360255635717156,3.3629160598188093e-06,31.158,0.01326649916142289,-4.027778870383587e-06,78.20766666666667,0.6031344976223977,2.049999999999997,0.0008489238413964424
S030,11393.0,11422.984375,N2,0.12363020833333332,8.56411235419862,-20.39,27.96,48.35,-1.045,0.0,984.375,984.375,0.33993463423951903,0.17950549357115012,0.0,65.53145862728235,0.24751467454089826,66.6783323126786,0.165625,108,0.8446904833333332,0.003579666164563707,2.3988752167087806e-06,31.166,0.01404753833713817,1.250000339084416e-05,82.39233333333333,1.212541912219486,3.8299999999999983,0.0018662852284844907
S030,11423.0,11452.984375,N2,-0.1735572916666662,73.16370710321655,-648.97,652.79,1301.76,-1.28,0.0,984.375,984.375,0.7538673439155077,0.41557017182220063,0.7493023375484394,65.7537952617009,0.38712661449590696,67.62396025078685,0.07708333333333334,56,0.8699510083333332,0.020547440086904508,1.453436179860074e-05,31.199333333333332,0.014360439485691705,9.305558079849541e-06,81.904,1.4714564213730574,4.730000000000004,-0.00230812562611915
S030,11453.0,11482.984375,N2,-0.021807291666666697,9.640143126225539,-22.36,29.9,52.26,-1.0350000000000001,0.0,984.375,984.375,0.4496092053105675,0.21137108216357317,0.4324096224614136,65.99621594678993,0.3729129094079067,66.55824516917495,0.16770833333333332,122,0.8731539,0.003555066662291058,2.1719623947380557e-06,31.21333333333333,0.011642832797715073,3.4027787008405037e-06,75.89866666666667,0.8539193300436638,2.8799999999999955,-0.001136597530544033
S030,11483.0,11512.984375,N2,0.09359375000000002,46.62015756356501,-386.65,289.07,675.72,-0.755,0.0,984.375,984.375,0.4269245131525661,0.5162201951982851,0.438826115192567,65.88831264888579,0.34163520897143945,68.9492567037528,0.03333333333333333,21,0.8778301916666666,0.003775007351639283,2.989453718927352e-06,31.211333333333332,0.012578641509408538,5.416668136031821e-06,78.18666666666665,1.9444850789404944,5.849999999999994,0.0034491676023132587
S030,11513.0,11542.984375,N2,0.07306250000000004,77.74338088113629,-803.77,774.7,1578.47,-0.59,0.0,984.375,984.375,0.3781752147557473,0.19982631347136334,0.13188915142607022,65.89068756929503,0.26925820113843196,66.55824516917495,0.022916666666666665,20,0.8830082833333334,0.003838237532130543,2.5998930663772476e-06,31.21933333333334,0.01526069752301247,-2.222222825038696e-06,81.57300000000001,0.42674074877689605,1.4499999999999886,0.0004939931895597846
S030,11543.0,11572.984375,N2,-0.04966666666666632,66.27987153676865,-383.86,396.18,780.04,-2.26,0.0,984.375,984.375,0.4894547703539339,0.358666269748851,0.5099019513592785,65.88347990468169,0.3713609870927459,68.27151675479314,0.07395833333333333,47,0.8871508083333333,0.003814966962058408,4.0317721440353965e-06,31.224666666666668,0.01359738536958047,-1.5277781922141048e-06,81.48466666666667,0.7923960850203374,2.430000000000007,-0.0010006252714369792
S030,11573.0,11602.984375,N2,0.10710416666666671,15.007165540222752,-174.79,60.12,234.91,-0.31,0.0,984.375,984.375,0.49264997011626366,0.29292696461272083,0.09090593428863096,65.76150177442291,0.3577839747259613,66.55824516917495,0.03854166666666667,33,0.8926706083333333,0.004141094300415117,3.14624716423806e-06,31.229333333333336,0.010934146311237583,5.6250015258792e-06,84.75500000000001,1.1506020163375343,3.950000000000003,0.000956076648241275
S030,11603.0,11632.984375,N2,-0.1493749999999999,69.0315771217917,-482.09,517.75,999.8399999999999,-1.3,0.0,984.375,984.375,0.8089338136896959,0.3146988612370386,0.9094978916581146,65.84858977068623,0.39751336900985806,68.044103344816,0.036458333333333336,20,0.9001120333333332,0.004872455084337764,6.120455653335418e-06,31.253333333333334,0.016397831834998107,1.3402781413514637e-05,83.31666666666666,1.0018460737835704,3.549999999999997,-0.0015068754087661164
S030,11633.0,11662.984375,N2,0.066671875,8.778951811757901,-24.48,27.73,52.21,-1.005,0.0,984.375,984.375,0.4695306000411475,0.0,0.07880950133074056,65.75246610968543,0.3222196373114872,66.21933252457322,0.321875,175,0.9065820749999998,0.00400556756727953,3.6135172562709583e-06,31.27866666666667,0.013349989596333572,1.201389214786545e-05,78.95033333333335,0.7355110845905424,2.5,0.00015607643122733086
S030,11663.0,11692.984375,N2,0.03616145833333337,104.49359255827291,-740.51,971.93,1712.44,-1.0,0.0,984.375,984.375,1.6261694509900662,1.2943185143799292,1.7314113818685286,66.17561473040557,0.5239020769811633,73.89857914736926,0.06875,49,0.9232373333333332,0.014282387154191783,-1.879756195680393e-05,31.289333333333335,0.017499206331208543,1.784722706359203e-05,79.99333333333333,0.3410897568415426,1.2800000000000011,3.9444455144436534e-05
S030,11693.0,11722.984375,N2,-0.0745937500000002,57.16407654398545,-416.99,330.93,747.9200000000001,-0.325,0.0,984.375,984.375,0.5059530593482847,0.09677414104501264,0.5828038891976347,65.93035127013006,0.33576737571008336,67.48333127521195,0.11770833333333333,74,0.9179844166666666,0.003694021035365421,2.1605535374765467e-06,31.297333333333334,0.014126413400277761,-1.0208336102521509e-05,78.472,1.3875359454803315,4.47999999999999,-0.002488889564043392
S030,11723.0,11752.984375,N2,-0.013473958333333484,94.6731149813682,-642.89,599.65,1242.54,0.63,0.0,984.375,984.375,0.6054727262414239,0.3552923287785551,0.5423073134507981,66.05537462259643,0.3899574358509648,70.18546858146635,0.06458333333333334,37,0.9225540499999999,0.004343335766531681,3.9266564471181765e-06,31.29533333333334,0.01359738536958047,2.7777785312983704e-06,75.862,0.7519148888005889,2.6000000000000085,-0.0006638196245170412
S030,11753.0,11782.984375,N2,-0.011375000000000047,8.130376418932991,-25.18,28.74,53.92,-0.125,0.0,984.375,984.375,0.12401959270615269,0.03225804701500421,0.16532992583014122,65.99332180216653,0.10810110555830713,66.73829485385434,0.016666666666666666,15,0.9285008583333334,0.003760674160076074,2.8625326775533446e-06,31.29200000000001,0.009451631252505017,-4.861112429772148e-07,75.18633333333332,0.5520113726686763,1.8500000000000085,0.0009791322100510564
S030,11783.0,11812.984375,W,0.11151562499999998,33.87882058013232,-141.53,286.02,427.54999999999995,-0.91,0.0,984.375,984.375,0.5969749770835365,0.2809875318507132,0.5233014437603499,66.07764798570689,0.39085804372019206,68.6804193347711,0.03854166666666667,24,0.9330062666666666,0.0034255471235345018,1.1644030936423385e-06,31.311999999999998,0.011944315244779026,7.0138907915283834e-06,77.93266666666665,1.4992085319335071,4.939999999999998,0.0025688895857447877
S030,11813.0,11842.984375,N2,-0.09759895833333336,7.307445298261373,-20.22,21.17,41.39,-0.34,0.0,984.375,984.375,0.48902894142939585,0.05581428468591173,0.07198059875565235,65.89042217538248,0.3710555437290756,66.87301398920195,0.3958333333333333,202,0.9364014083333334,0.00439782156204606,2.98606613120284e-06,31.323999999999995,0.018726095873584737,1.9097227402677296e-05,81.884,0.8651805206622097,2.4199999999999875,-0.0012244447765963468
S030,11843.0,11872.984375,N2,0.02214062499999979,64.05723896487532,-545.93,524.45,1070.38,-0.215,0.0,984.375,984.375,0.8630106177729732,0.5940231462358088,1.111397315569709,66.06443123961341,0.430948550360389,69.36137253543934,0.15208333333333332,104,0.9411097083333334,0.0035735783009840207,2.3686653560832582e-06,31.375333333333334,0.02186829262247566,3.166667525680184e-05,78.20633333333332,2.281237213053964,6.5,-0.003968299687581294
S030,11873.0,11902.984375,N2,-0.009197916666666672,7.087924625903951,-21.67,24.37,46.040000000000006,-0.545,0.0,984.375,984.375,0.11110243021644486,0.4995657836784082,0.49888765156985887,66.15218991121081,0.34799897188200307,66.64082832618455,0.2520833333333333,173,0.9463423583333335,0.01199541386655461,7.267681441970874e-06,31.413333333333338,0.016397831834998107,1.3263892486949717e-05,73.55733333333335,0.779011909764899,2.490000000000009,0.001157986425235034
S030,11903.0,11932.984375,N2,0.04472395833333369,79.26379838096308,-595.79,605.98,1201.77,-2.16,0.0,984.375,984.375,1.3881751204118866,0.6444171300485424,1.5155870556533164,65.88546683674375,0.3940300804983681,67.86015030929418,0.0625,39,0.8612974500000002,0.005976155830813538,-5.936272877678189e-06,31.42333333333334,0.01490711984999828,-8.055557740765273e-06,73.76299999999999,1.0032020401361508,2.989999999999995,-0.0010644100109619184
S030,11933.0,11962.984375,N2,-0.013656249999999903,9.597607463720804,-37.37,53.11,90.47999999999999,-1.255,0.0,984.375,984.375,0.13188915142607024,0.43942903097529745,0.09636964965693294,65.85505031884314,0.25587595165543925,66.6783323126786,0.016666666666666666,14,0.8606888666666668,0.0035005808445012234,1.6626775343634792e-06,31.436,0.014742229591663674,1.5347226385423493e-05,74.03966666666665,0.5603182627360598,1.6899999999999977,-0.0009743405420845658
S030,11963.0,11992.984375,N2,-0.08489062499999989,93.52572909581997,-558.09,497.8,1055.89,-1.9899999999999998,0.0,984.375,984.375,0.8918704741767906,0.4998437255783051,0.7362977194024317,65.83650989672721,0.3591164409188113,67.29784543356496,0.17708333333333334,81,0.8664006833333334,0.004324157902573497,3.2070060782894076e-06,31.471333333333337,0.01543444920371997,1.611111548153055e-05,76.33300000000001,2.128710329440497,5.460000000000008,0.0035818412494144024
S030,11993.0,12022.984375,N2,0.07968750000000005,10.854876803684926,-48.22,62.23,110.44999999999999,-1.07,0.0,984.375,984.375,0.13928372696486202,0.0,0.09636964965693294,65.68410010714653,0.10720594363101246,66.37017402418047,0.029166666666666667,26,0.8732978416666666,0.003966356522880566,2.882875565016148e-06,31.482666666666674,0.01093414631123788,1.875000508626659e-06,79.52733333333332,0.8668369063567961,2.3900000000000006,0.0013034725758117875
S030,12023.0,12052.984375,N2,-0.06770833333333333,50.56090103114853,-470.17,247.09,717.26,-1.27,0.0,984.375,984.375,0.6512674608450476,0.3707865138983467,0.5276213903901379,65.94499396533273,0.3879165445835243,69.26037828369117,0.2875,125,0.8774296666666667,0.0035488889677694306,2.8942247434420384e-06,31.490000000000002,0.014605934866805415,7.5000020345061206e-06,78.04933333333332,0.8845975858484403,3.3999999999999915,-0.0015308337485985648
S030,12053.0,12082.984375,N2,0.08647916666666662,22.112077890722965,-137.23,231.71,368.94,-1.55,0.0,984.375,984.375,0.36890886408434265,0.0,0.16232629604869597,66.24362807126569,0.267064204175055,66.37017402418047,0.0,0,0.8829279416666667,0.003951576728125607,3.0942198063747333e-06,31.495333333333335,0.01995550606279536,1.0694447345499256e-05,74.299,0.7868305620229391,2.450000000000003,-0.0010944794635632225
S030,12083.0,12112.984375,N2,-0.17513541666666654,70.29984037501434,-526.1,421.73,947.83,-2.645,0.0,984.375,984.375,0.45613107278013365,0.3635625590940299,0.5596222684394656,66.1850697352077,0.3386283297238561,68.31544481301428,0.017708333333333333,13,0.8867714666666667,0.0036228486557158554,3.4416428606887033e-06,31.51333333333333,0.013743685418726247,1.2152781074431395e-05,74.81866666666666,0.6035436097655986,1.8299999999999983,0.0009972919371994198
S030,12113.0,12142.984375,W,0.060598958333333404,44.86666842231917,-299.21,345.42,644.63,-0.555,0.0,984.375,984.375,0.06441510347391795,0.21137108216357317,0.21578094200034337,66.3201941467076,0.166378112565916,66.37017402418047,0.0,0,0.8920028833333332,0.0032932644498109872,2.0182375266486332e-06,31.53533333333333,0.012578641509408536,-3.7500010172528002e-06,76.14066666666668,0.20300957831809188,0.8800000000000097,-0.0001339583696718691
S030,12143.0,12172.984375,W,0.10761979166666666,46.48202799773827,-479.03,411.03,890.06,-1.355,0.0,984.375,984.375,0.045595976308831845,0.2304038573895845,0.2957874817753449,66.29820516662424,0.19113699501328227,66.37017402418047,0.0,0,0.8962627833333331,0.003162588681716647,1.3968072365471e-06,31.54533333333333,0.012310790208412662,5.069445819619526e-06,76.75866666666666,0.5096909739134973,1.7199999999999989,0.0005940279389181695
S030,12173.0,12202.984375,W,-0.04450520833333341,7.204807976924012,-27.58,28.56,56.14,-0.49,0.0,984.375,984.375,0.03225804701500421,0.254795584597841,0.24016912082368583,66.30598258075695,0.18542473860634076,66.37017402418047,0.0,0,0.8976827416666666,0.0032684787146720034,-4.417861441477147e-08,31.552000000000003,0.013999999999999702,-1.8750005086264001e-06,77.243,0.9327312939248185,2.780000000000001,0.001632118498296033
S030,12203.0,12232.984375,W,0.004718750000000002,6.582675354043504,-25.58,21.78,47.36,-0.55,0.0,984.375,984.375,0.0,0.27161545721335933,0.21578094200034337,66.30524472792736,0.17660191483893162,66.37017402418047,0.0,0,0.9015049666666666,0.0032508471201963475,3.12768748038397e-06,31.553333333333338,0.010434983894998797,-1.180555875801807e-06,76.643,0.9886696448595302,3.219999999999999,-0.0011140628022088775
S030,12233.0,12262.984375,W,1.0285833333333334,16.668838959684294,-25.71,240.9,266.61,-0.335,0.0,984.375,984.375,0.24062274529968183,0.2885548282196797,0.20766559657295183,66.29545434124937,0.21943188916677572,67.36467917239716,0.0020833333333333333,2,0.9056154583333333,0.004059547854330243,1.2506112333472243e-06,31.558,0.01599999999999966,-1.527778192214105e-06,78.22833333333334,0.3979789218315741,1.1499999999999915,-0.00014684031761076443
S030,12263.0,12292.984375,W,-1.0261718749999997,37.96893792383728,-412.86,247.05,659.9100000000001,-0.355,0.0,984.375,984.375,0.09636964965693294,0.33071891388307384,0.07880950133074056,66.29364427750153,0.19262244958921373,66.37017402418047,0.0,0,0.9095230000000001,0.0031410618825486315,1.705489611949215e-06,31.571999999999996,0.01492201952373261,3.958334407100176e-06,78.92866666666666,0.09783432708183563,0.37999999999999545,-5.7986126840851905e-05
S030,12293.0,12322.984375,N1,-0.023562500000000004,6.853176545728782,-24.45,26.72,51.17,-0.22,0.0,984.375,984.375,0.06441510347391795,0.27794938275700487,0.06441510347391793,66.32005460607353,0.16247681092410923,66.37017402418047,0.0,0,0.9129501916666668,0.003609283052758621,2.1351687649654864e-06,31.576,0.01724335620850305,6.875001864963466e-06,78.76833333333335,0.5886146636146791,2.289999999999992,-0.00044371539814328247
S030,12323.0,12352.984375,N2,0.05836979166666667,14.728141352764242,-75.6,106.24,181.83999999999997,-0.96,0.0,984.375,984.375,0.032258047015004204,0.32593348844340764,0.10642856726723116,66.29941355434877,0.18888889882253015,66.37017402418047,0.0,0,0.9160998250000001,0.003246134777604746,2.3010637752451647e-06,31.57999999999999,0.012382783747337544,1.7361115820614815e-06,77.46900000000001,0.41567094357596657,1.230000000000004,0.00036454871000127893
S030,12353.0,12382.984375,W,-0.0075729166666666185,12.713546730296512,-57.71,66.04,123.75,-0.8200000000000001,0.0,984.375,984.375,0.06451609403000842,0.40686251900980014,0.1874276480775685,66.24290819223097,0.24586087323998623,66.55073252789934,0.0010416666666666667,1,0.9207334083333334,0.0034472663263708787,1.7138149180270474e-06,31.602,0.011075498483890531,3.6111120906878814e-06,77.128,0.12292002820262232,0.4000000000000057,0.00018645838391340809
S030,12383.0,12412.984375,N2,-0.00710416666666666,8.245772676397038,-29.75,29.4,59.15,-0.98,0.0,984.375,984.375,0.05581428468591172,0.2900232719350102,0.08507936450096985,66.31492040627406,0.16794793697528415,66.37017402418047,0.0,0,0.925099975,0.0032382124684834463,2.9550637356400907e-07,31.61733333333333,0.013148721948877068,3.819445480535259e-06,76.93599999999999,0.2111808072087367,0.6200000000000045,0.00010166669424552326
S030,12413.0,12442.984375,N2,-0.004677083333333335,6.821224428812237,-21.52,21.4,42.92,-0.23,0.0,984.375,984.375,0.07198059875565237,0.2943625410196677,0.04559597630883184,66.31410513548961,0.16733722208167498,66.37017402418047,0.0,0,0.9286766416666665,0.0034551148384094643,8.107183188797488e-07,31.64,0.02113448997886348,2.131945022771556e-05,77.33400000000002,0.4148863298141634,1.6700000000000017,0.0004046528875468998
S030,12443.0,12472.984375,N2,0.017109375000000013,10.31856710056539,-32.87,46.31,79.18,-1.45,0.0,984.375,984.375,0.07902948640996109,0.36110844016106236,0.22838645595544602,66.26417535348337,0.2408797545233364,66.55073252789934,0.0020833333333333333,2,0.9332568333333334,0.003667491907133384,2.16392463214101e-06,31.672000000000008,0.014922019523733643,1.0069447175957418e-05,78.76166666666667,0.5230556588186592,1.4299999999999926,-0.0006817710182755574
S030,12473.0,12502.984375,N2,-0.010307291666666678,7.665278700857642,-22.34,39.8,62.14,-0.725,0.0,984.375,984.375,0.06441510347391795,0.26836818808308854,0.13188915142607022,66.31736168684353,0.16844058212999838,66.37017402418047,0.0,0,0.9367267416666666,0.0037065830839553503,2.298288166853348e-06,31.686,0.014047538337136687,1.4722226215881362e-05,78.387,0.14756128670262195,0.5999999999999943,-0.00011704864286258914
S030,12503.0,12532.984375,W,-0.5088489583333333,30.38446041938521,-279.68,213.05,492.73,-1.0750000000000002,0.0,984.375,984.375,0.30769747216218724,0.3612706645377612,0.43554996962652476,66.24433093113835,0.283348111852516,67.5721836261046,0.016666666666666666,12,0.9410613833333333,0.006163750527862252,2.1825878316481704e-06,31.715333333333334,0.011469767022723258,3.7500010172528002e-06,81.13133333333332,2.0054122324904227,5.219999999999999,0.003525070400680989
S030,12533.0,12562.984375,N2,0.49852604166666653,82.94782051564825,-589.04,487.94,1076.98,-1.03,0.0,984.375,984.375,0.4509057243174256,0.220439901106855,0.2875905654456233,66.23098867726074,0.3533961411181703,68.24954212300622,0.011458333333333333,5,0.9431220166666668,0.0036408695504035232,9.277715190352366e-07,31.708000000000002,0.013012814197295147,-9.513891469696917e-06,86.37966666666668,2.096429477839776,6.200000000000003,0.0037493412948516954
S030,12563.0,12592.984375,W,-0.05525520833333333,11.102911270692418,-56.5,105.75,162.25,-0.535,0.0,984.375,984.375,0.32714138285304106,0.0,0.07198059875565235,66.28200816805311,0.23178986921763173,66.37017402418047,0.0,0,0.9456415166666666,0.003177193903387427,8.855076186815418e-07,31.70466666666666,0.010241527663824593,-4.166667796947556e-06,89.26899999999999,1.561002562457858,4.799999999999997,-0.0025241326291592413
S030,12593.0,12622.984375,W,0.10266666666666663,13.147955444404866,-72.4,116.65,189.05,-0.98,0.0,984.375,984.375,0.36218856353501216,0.1201127942116631,0.256120817708926,66.30201524774127,0.24165903310668863,67.29784543356496,0.009375,6,0.9485028583333334,0.003776022272832954,1.94545647391939e-06,31.718666666666664,0.013349989596333572,1.5069448532293659e-05,82.01266666666668,3.0049203354202625,9.329999999999998,-0.00537639034732811
S030,12623.0,12652.984375,W,-0.007770833333333075,78.02925489192593,-600.71,656.53,1257.24,-1.745,0.0,984.375,984.375,0.44385146531682074,0.2068462551362458,0.4130625373018258,65.93090697289992,0.3429126188241729,66.82813778641449,0.2375,124,0.9514816583333333,0.003263839276822708,2.145255573257266e-06,31.733999999999998,0.011999999999999744,8.19444666733019e-06,73.55866666666667,1.172517898465615,4.060000000000002,-0.0014620837299489289
S030,12653.0,12682.984375,N2,-0.06733854166666656,20.778225934105226,-119.25,120.3,239.55,-1.995,0.0,984.375,984.375,0.4564164460470528,0.1529193630552463,0.37727176461405115,65.94061627059949,0.3618828358501959,66.82813778641449,0.27395833333333336,144,0.9548020416666667,0.0034436781581032253,1.9815133413393455e-06,31.75,0.014605934866804117,4.861112429772148e-06,74.775,0.7964159298590994,2.3300000000000125,0.0012539239512597531
S030,12683.0,12712.984375,W,0.11446874999999995,64.41354963832873,-377.27,360.77,738.04,-1.7149999999999999,0.0,984.375,984.375,0.4311430523587527,0.12401959270615269,0.3736027208888548,65.9044462090056,0.33199380157749964,66.82813778641449,0.23229166666666667,122,0.9583145416666666,0.003888521908334472,1.8977576762580398e-06,31.758666666666667,0.016069294390924926,1.034722502908643e-05,75.66799999999999,0.21143005147487168,0.6500000000000057,0.0001945833861174555
S030,12713.0,12742.984375,W,-0.15615104166666668,9.395423239097308,-22.31,27.16,49.47,-1.245,0.0,984.375,984.375,0.49495720914932523,0.07880950133074056,0.17399263633843817,65.97914680980178,0.35663181380990744,66.82813778641449,0.42291666666666666,182,0.9626065166666667,0.004247766112878885,2.765833649585954e-06,31.796000000000003,0.013808210118138358,7.986113277482815e-06,75.546,0.3102858896781062,0.9500000000000028,0.00034770842765528007
S030,12743.0,12772.984375,N2,-0.054916666666666746,30.402284116036782,-258.72,233.65,492.37,-1.115,0.0,984.375,984.375,0.48491904930101487,0.06441510347391796,0.20684625513624577,65.95058194646062,0.3504629174624536,66.82813778641449,0.37395833333333334,173,0.9660229416666667,0.00332958514006333,1.6242098589978963e-06,31.811999999999998,0.011944315244779026,6.736112938398548e-06,77.00600000000001,0.7247923840659471,2.3799999999999955,0.001293472573099113
S030,12773.0,12802.984375,N2,0.13651041666666677,30.33171467481644,-276.8,210.49,487.29,-1.26,0.0,984.375,984.375,0.4382916943942698,0.1064285672672312,0.23437268517375387,65.86927465902038,0.32453437599287954,66.82813778641449,0.2552083333333333,151,0.9744039833333333,0.017777481166250428,1.50864415924592e-05,31.823999999999998,0.015620499351813963,3.541667627405829e-06,77.29733333333334,0.7528166369634042,1.9500000000000028,-0.001175486429982214
S030,12803.0,12832.984375,N2,0.047234375000000564,120.67027889091719,-719.08,632.34,1351.42,-0.245,0.0,984.375,984.375,0.7011886918634829,0.45984480889087886,0.8049084445865048,65.92938030469101,0.32297467303526256,68.31544481301428,0.08333333333333333,48,0.9760054249999999,0.005798182792425138,-5.242350163397941e-06,31.83333333333333,0.012736648783029656,-3.1250008477108516e-06,75.46866666666668,1.3408970463420713,3.9200000000000017,-0.0023597923068012995
S030,12833.0,12862.984375,N2,-0.08680208333333334,6.942777030722577,-21.6,24.0,45.6,0.17,0.0,984.375,984.375,0.09090593428863096,0.1496378730654628,0.032258047015004204,65.9094491663558,0.10067565527297317,66.60330322138685,0.008333333333333333,7,0.9761975833333333,0.003902922113799982,2.360126942308733e-06,31.85466666666667,0.016878651868230024,1.1319447515041625e-05,73.45700000000001,0.373417996352614,1.0799999999999983,0.0004594098468451217
S030,12863.0,12892.984375,N2,-0.08652604166666666,50.092278381007624,-488.45,219.53,707.98,-0.765,0.0,984.375,984.375,0.22649723676877143,0.19982631347136331,0.19552002863446555,65.91514132481333,0.19466414638348095,66.60330322138685,0.04583333333333333,33,0.97912295,0.0035337620388899886,1.6222725754862541e-06,31.859333333333332,0.01436043948569243,9.72222485954245e-07,74.00833333333334,0.4302641307641412,1.3200000000000074,0.0006262848921128712
S030,12893.0,12922.984375,N2,0.062156249999999955,71.95631334384834,-516.13,376.23,892.36,0.52,0.0,984.375,984.375,0.9302351619871301,0.545291357835933,1.171303564380539,65.92298692498977,0.4453499234254408,67.95586803212802,0.15729166666666666,79,1.0102769583333333,0.04656406962444251,4.700343961681846e-05,31.862000000000002,0.01904380914278125,-4.583334576642964e-06,73.08699999999999,0.8620485291830535,2.819999999999993,-0.0014388545569809436
S030,12923.0,12952.984375,N2,0.22836458333333354,16.29571748869149,-64.25,54.64,118.89,0.925,0.0,984.375,984.375,0.16567085319156846,0.3817392125376811,0.3886352099191334,66.20397077766971,0.3059873681334575,66.55824516917495,0.0010416666666666667,1,1.018060125,0.005315803761054533,-7.377872444084303e-06,31.86866666666667,0.01543444920372027,8.47222452046019e-06,68.02666666666667,1.205460723356657,4.189999999999998,-0.0018182643821246694
S030,12953.0,12982.984375,N2,-0.3036302083333334,60.26488906796121,-413.37,372.63,786.0,0.195,0.0,984.375,984.375,0.5637630495533267,0.45525004576239925,0.5046614307852564,65.86387534459517,0.46202408843476017,68.66585760041157,0.23020833333333332,59,1.0152095,0.004172203983907438,-4.229133091670148e-07,31.894,0.013063945294843338,1.0277780565803969e-05,69.65599999999999,0.8615977406346106,3.069999999999993,0.0015418059737971922
S030,12983.0,13012.984375,N2,0.20502604166666666,14.133804158800341,-39.79,47.39,87.18,1.02,0.0,984.375,984.375,0.4724977494802371,0.18483053424390922,0.0,65.62790499481524,0.33223133230967644,66.60330322138685,0.33645833333333336,139,1.0147183666666668,0.003253835180555727,6.626078186327604e-07,31.923333333333336,0.01490711984999828,1.208333661114791e-05,75.11966666666667,1.637558107535594,5.480000000000004,0.0026125354309178154
S030,13013.0,13042.984375,N2,0.2057395833333334,14.69403700538135,-48.17,37.97,86.14,1.48,0.0,984.375,984.375,0.41962362227953753,0.17116012950028858,0.0,65.55010574753923,0.2963159683321113,66.06814663663572,0.25833333333333336,156,1.0153055500000001,0.0034145774088213707,1.8917379263611666e-06,31.955333333333336,0.01627540748764459,1.0833336272063644e-05,74.43366666666665,0.5922020113290936,2.230000000000004,-0.0008678821798725546
S030,13043.0,13072.984375,N2,0.1212135416666668,48.39773933615323,-381.18,316.1,697.28,0.59,0.0,984.375,984.375,0.6321775363772427,0.2661371696241537,0.3776756397874887,65.67392069454375,0.3689723658718443,67.66830868286867,0.35208333333333336,159,1.0191491583333334,0.0059822682389929615,3.3364286394391944e-06,31.982000000000006,0.014468356276140605,1.5416670848706534e-05,74.70933333333332,0.2775479938477105,0.9699999999999989,0.00041597233506194127
S030,13073.0,13102.984375,N2,-0.5285677083333332,23.626524251547398,-195.97,183.22,379.19,-0.395,0.0,984.375,984.375,0.1721462506046014,0.032258047015004204,0.4427647022936926,65.95750573502566,0.22393201510350316,66.76825593049439,0.027083333333333334,13,1.0205050500000001,0.003892877448730354,1.0836170474221587e-06,31.998,0.01077032961426968,-9.02778022671822e-07,75.48033333333335,0.516316978436912,1.8100000000000023,0.0007194793618379361
S030,13103.0,13132.984375,N2,0.08503124999999997,13.73861221608731,-39.01,43.74,82.75,1.46,0.0,984.375,984.375,0.08523227047636099,0.0,0.3984289895605266,65.97712172478923,0.1926583651883945,66.76825593049439,0.00625,5,1.02211725,0.003913768989627087,2.0307119223936473e-06,32.022,0.01661324772583598,8.472224520459758e-06,78.17966666666668,0.35701058185375484,1.4000000000000057,0.0001440625390794683
S030,13133.0,13162.984375,W,0.040265624999999736,31.673852812070297,-130.48,187.43,317.90999999999997,0.805,0.0,984.375,984.375,0.3766615389584601,0.20659430436781698,0.5142247401023538,65.97945427144084,0.25238339125027576,66.82813778641449,0.11979166666666667,41,1.0247435583333333,0.0036145890241165526,2.22921653353313e-06,32.04,0.0214476105895267,2.506945124496699e-05,79.49133333333334,0.5621371916376129,2.019999999999996,0.0005656945978989233
S030,13163.0,13192.984375,N2,-0.12395833333333355,29.096366727263916,-131.21,230.87,362.08000000000004,0.01,0.0,984.375,984.375,0.3724391728859895,0.09636964965693294,0.23672204457736692,65.69284576918416,0.2642090324942398,68.31544481301428,0.15833333333333333,96,1.02683615,0.0037832303957729078,3.005460450699993e-06,32.08733333333335,0.018427033281447916,2.1250005764434162e-05,75.12066666666666,1.123093742995461,4.200000000000003,-0.001322222580898051
S030,13193.0,13222.984375,N2,-0.05674999999999993,21.647115513677566,-65.2,181.8,247.0,-0.36,0.0,984.375,984.375,0.2986060642338368,0.0,0.24578919095210203,65.69026641082695,0.24652357814385747,66.76825593049439,0.153125,103,1.0296441166666666,0.0037149791210344956,1.4960971940367919e-06,32.123000000000005,0.017349351572897135,2.3020839578135743e-05,72.87533333333334,1.736163842754735,4.719999999999999,-0.0030959730620586635
S030,13223.0,13252.984375,W,0.5254635416666666,57.966951936118704,-233.15,436.08,669.23,1.5150000000000001,0.0,984.375,984.375,0.45907964806108414,0.17967164785148118,0.2733357945773334,65.79516880656676,0.3306106199931943,67.29784543356496,0.24895833333333334,83,1.0329003666666667,0.003026614615741862,1.525332879050798e-06,32.14766666666665,0.009551032521261035,5.729168220801872e-06,72.106,0.7003837043602119,2.299999999999997,0.0011886808780058797
S030,13253.0,13282.984375,N2,-0.20888541666666655,15.795839157677063,-59.96,38.92,98.88,1.415,0.0,984.375,984.375,0.3790736493047521,0.0,0.10152910775842669,65.71727100238577,0.273252628509406,66.76825593049439,0.18125,107,1.0351423666666666,0.0037410921955433646,1.760541710216398e-06,32.15766666666666,0.009893881386436857,7.534724266146899e-06,72.79033333333334,0.8410686984756677,2.6199999999999903,0.0011832294876382072
S030,13283.0,13312.984375,N1,-0.2966197916666667,15.533127243398487,-38.88,68.49,107.37,0.425,0.0,984.375,984.375,0.47729594061814057,0.0,0.11110243021644485,65.84313522877459,0.34046768613670025,66.76825593049439,0.35104166666666664,150,1.0390287583333333,0.0034486343722209493,2.1380932449254686e-06,32.18066666666666,0.01691810338726744,7.291668644659197e-06,75.27766666666666,0.39583399999943825,1.4799999999999898,0.00033434036847340595
S030,13313.0,13342.984375,W,0.10895312499999996,26.2049665994248,-96.84,230.43,327.27,0.21,0.0,984.375,984.375,0.41962362227953753,0.0,0.1356408400888169,65.75943914190695,0.3050225267690718,66.76825593049439,0.240625,130,1.042007475,0.0038694443829454814,1.9872173359421976e-06,32.199333333333335,0.019310331143946462,8.819446836871548e-06,77.67633333333333,0.7931980977172232,2.549999999999997,7.881946582559033e-06
S030,13343.0,13372.984375,N2,-0.10095312500000007,17.60598901646263,-53.28,75.27,128.55,1.725,0.0,984.375,984.375,0.46558538235632885,0.0,0.10642856726723118,65.81913661324211,0.3316707514592793,66.76825593049439,0.3177083333333333,161,1.0460965416666668,0.00365468764259416,2.400500000135626e-06,32.230333333333334,0.016829207415152588,1.5312504153782383e-05,74.721,0.7188340095831112,2.8599999999999994,-0.0012404517253829538
S030,13373.0,13402.984375,N2,0.055822916666666625,22.0029378945057,-64.57,153.64,218.20999999999998,2.415,0.0,984.375,984.375,0.49344553728237217,0.03225804701500421,0.11131708339493787,65.88125359115682,0.3564995432720384,66.76825593049439,0.40729166666666666,173,1.050217625,0.004261760592881972,2.8264128760885694e-06,32.26199999999999,0.011075498483891898,2.638889604733502e-06,73.16966666666667,0.8327403890502463,2.680000000000007,0.001193298934814162
S030,13403.0,13432.984375,W,-0.15100520833333336,15.87584493092592,-47.21,38.5,85.71000000000001,1.49,0.0,984.375,984.375,0.4917185265728759,0.0,0.09636964965693294,65.88277437418682,0.3500582237161952,66.76825593049439,0.409375,170,1.0536447666666668,0.00393250226050651,1.2825593756942864e-06,32.287333333333336,0.011234866364234344,3.194445310992582e-06,76.41499999999999,0.576233459632465,2.1099999999999994,0.0010263544450831276
S030,13433.0,13462.984375,W,0.1805572916666667,49.04677760345909,-454.14,225.95,680.0899999999999,2.975,0.0,984.375,984.375,0.4746149298086,0.0,0.08507936450096985,65.83477714312185,0.3367024138317003,66.76825593049439,0.34270833333333334,161,1.0569224416666665,0.004209091392046185,2.829787877004097e-06,32.30766666666667,0.017451520150277983,1.8020838221798033e-05,77.21533333333333,0.1941087896573003,0.8799999999999955,-0.0002659722943718264
S030,13463.0,13492.984375,N1,0.115072916666667,49.29528068388512,-463.99,243.71,707.7,1.93,0.0,984.375,984.375,0.4997221450188317,0.0,0.11110243021644485,65.93641186905379,0.356496612189667,66.76825593049439,0.48333333333333334,169,1.0608192583333333,0.003395679744164709,1.1318481802973532e-06,32.329,0.014685593847940425,1.6493060029586102e-05,75.96133333333334,0.3917714753384795,1.289999999999992,0.0002969445249958006
S030,13493.0,13522.984375,N2,-0.0013958333333332481,20.5356747700187,-75.62,97.92,173.54000000000002,2.2,0.0,984.375,984.375,0.48946807153843597,0.0,0.07198059875565234,65.87271110599607,0.34685234031692935,66.76825593049439,0.39791666666666664,193,1.0646841833333334,0.004544724069334569,4.784595481932373e-06,32.356333333333346,0.01702612371882706,-2.951389689504192e-06,77.20133333333334,0.28794366733018256,1.2099999999999937,0.0003780556581097149
S030,13523.0,13552.984375,N2,-0.19315104166666658,25.955552984824262,-228.99,80.22,309.21000000000004,3.4000000000000004,0.0,984.375,984.375,0.4988876515698588,0.04559597630883185,0.06441510347391793,65.96661499545608,0.35278327804471754,66.76825593049439,0.0020833333333333333,2,1.068997525,0.0036258380869404836,2.5148568019902156e-06,32.39766666666666,0.019267128022156934,2.2743061725004945e-05,78.23066666666666,0.4211091175561144,1.4500000000000028,-0.0004102084446094959
S030,13553.0,13582.984375,N1,0.09484895833333332,16.987979913447226,-47.07,40.64,87.71000000000001,2.575,0.0,984.375,984.375,0.4976986970603355,0.0,0.04559597630883185,65.9769954433201,0.35152847981090457,66.76825593049439,0.0010416666666666667,1,1.07409025,0.004276099689456105,2.260939415402384e-06,32.43666666666666,0.018135294011648352,2.1666672544128867e-05,77.45233333333333,0.5009503191158009,1.4000000000000057,0.0007721182650060401
S030,13583.0,13612.984375,W,0.042875000000000024,18.0513847104188,-54.19,40.31,94.5,2.65,0.0,984.375,984.375,0.4999121016488799,0.0,0.06441510347391793,65.93758186293876,0.3548564051123594,66.76825593049439,0.490625,190,1.0771649833333332,0.0034615865003957682,1.1921548372815808e-06,32.46633333333334,0.016428295373801773,2.107639460622592e-05,78.55733333333333,0.16227411650934728,0.5499999999999972,0.0001790278263421841
S030,13613.0,13642.984375,N2,-0.012307291666666723,18.167742474052424,-55.68,37.71,93.39,2.74,0.0,984.375,984.375,0.4999989149293782,0.0,0.07198059875565234,65.94395667137476,0.3547231650871864,66.76825593049439,0.003125,3,1.0812967833333333,0.004394623643694905,3.344946653902643e-06,32.50033333333333,0.010796089827134236,7.604168729428605e-06,78.77366666666667,0.3107784133787635,1.019999999999996,-0.00047434040645084684
S030,13643.0,13672.984375,N2,0.23733854166666682,39.86692036547414,-356.52,217.81,574.3299999999999,1.68,0.0,984.375,984.375,0.49934744743904413,0.0,0.08523227047636098,66.01159425136301,0.3515552020449871,67.00746227100382,0.005208333333333333,4,1.0850334583333334,0.003278127887722485,1.2836837249576037e-06,32.53733333333333,0.019310331143946178,1.6944449040919888e-05,78.00866666666666,0.2531235973898038,0.7600000000000051,0.00031618064132504477
S030,13673.0,13702.984375,W,-0.13855729166666672,22.070267177430726,-64.14,42.87,107.00999999999999,4.245,0.0,984.375,984.375,0.4952508833914383,0.0,0.10152910775842669,65.89868247050616,0.3551741142103265,66.76825593049439,0.43125,201,1.0893255000000002,0.004393256950524668,2.70608667157299e-06,32.56333333333334,0.015776212754933773,1.6527782261227694e-05,76.66000000000001,0.7027991652432913,2.200000000000003,-0.001238403113716123
S030,13703.0,13732.984375,N2,-0.23008854166666648,81.27154680543744,-395.63,549.25,944.88,-2.43,0.0,984.375,984.375,0.31778687553750373,0.46181325703686765,0.38023544423890254,66.11036966919424,0.33269936752067425,67.94850991743675,0.017708333333333333,16,1.0898060083333334,0.0038183097143802383,2.1119547829738354e-06,32.63433333333333,0.025649344804279852,4.149306681126826e-05,74.81166666666668,1.2506267317718025,3.299999999999997,-0.0019436463605811516
S030,13733.0,13762.984375,W,0.15798437500000004,21.83391696539673,-49.64,44.78,94.42,4.615,0.0,984.375,984.375,0.0,0.3283415290855274,0.11557806855349136,66.22430587271587,0.18444514171990548,66.29479617586888,0.0,0,1.0954859583333332,0.003561334654769747,1.6754164701108013e-06,32.696666666666665,0.03091206165165276,4.92361244672654e-05,75.06133333333332,0.4399676755803266,1.4000000000000057,0.0007788196557127966
S030,13763.0,13792.984375,N2,-0.0480416666666665,26.161251610969046,-102.45,121.97,224.42000000000002,-0.11499999999999999,0.0,984.375,984.375,0.2617030727062426,0.4779411411199082,0.46599188565896726,66.01584272826177,0.3538015603055004,67.00746227100382,0.015625,13,1.0997885916666665,0.003543474971681113,3.018534455982651e-06,32.786,0.025508168626278405,3.7916676952222706e-05,75.93733333333333,0.5341343984013353,1.5499999999999972,0.000302986193301377
S030,13793.0,13822.984375,N2,0.07603124999999994,21.707031183252354,-50.86,78.93,129.79000000000002,1.9449999999999998,0.0,984.375,984.375,0.04559597630883185,0.4454583703582437,0.3781752147557473,66.07365897984073,0.3005644950954439,66.49060083951716,0.0010416666666666667,1,1.1048918166666666,0.00438937184948548,4.822352436619052e-06,32.847333333333346,0.01590248058916666,1.4375003899468017e-05,75.54633333333335,0.3546593044348641,0.980000000000004,0.00046399318142176173
S030,13823.0,13852.984375,N2,-0.8394635416666667,72.41647862777938,-373.69,463.24,836.9300000000001,0.915,0.0,984.375,984.375,0.44546202411715813,0.47979578265711703,0.6429834635315281,66.07859862933579,0.34467837637830073,66.76825593049439,0.08125,65,1.1097922833333334,0.0043946155068510405,2.807634008147251e-06,32.89399999999999,0.014966629547095257,1.7500004747178845e-05,75.02333333333333,0.4090340925752876,1.7700000000000102,-0.00017604171442103708
S030,13853.0,13882.984375,N2,0.9132083333333333,20.420581568153175,-47.79,84.83,132.62,4.805,0.0,984.375,984.375,0.3570714214271425,0.24393467007354425,0.26170307270624255,66.10468179410194,0.2780196045728813,66.76825593049439,0.10833333333333334,82,1.1136892083333334,0.004234667946242142,2.6232214147193687e-06,32.92399999999999,0.016451950239006,2.159722808084805e-05,72.526,0.6551060982772171,2.030000000000001,-0.0009762502648248321
S030,13883.0,13912.984375,N2,-0.17025520833333335,78.18749644342834,-582.05,435.87,1017.92,-0.6,0.0,984.375,984.375,1.0806838594920656,0.6388873792252694,0.8058212415070037,65.96665182325016,0.4180975525156995,68.30812543175226,0.103125,66,1.1207464000000003,0.004568638240584746,4.104810141278799e-06,32.952666666666666,0.011234866364234344,3.472223164123999e-06,72.86966666666667,0.2665018240504584,0.7999999999999972,0.00043802095215411983
S030,13913.0,13942.984375,N2,0.06672395833333335,8.201974746138944,-33.71,28.32,62.03,0.585,0.0,984.375,984.375,0.0,0.43942903097529745,0.21358993356949718,65.79881529958253,0.2587408705489007,66.40783086353596,0.034375,31,1.1237678,0.0034558100560264154,1.6607339574473688e-06,32.955333333333336,0.01707499796648727,2.0138894351913802e-05,74.354,0.5294878028182823,1.519999999999996,0.0008765280155512187
S030,13943.0,13972.984375,N2,-0.3567447916666661,85.90546932091908,-476.06,538.26,1014.3199999999999,0.52,0.0,984.375,984.375,0.5347058754716362,0.42117225420050325,0.32595346250994517,65.97153038040518,0.2866692646154945,67.29784543356496,0.03958333333333333,27,1.1303124500000001,0.004174497686049579,1.8806945205877035e-06,32.99033333333334,0.011967548714011244,1.065972511385802e-05,74.67800000000001,0.6365291299958974,1.8000000000000114,-0.0008397918944747991
S030,13973.0,14002.984375,N2,0.6390052083333327,92.08040881932111,-536.68,711.86,1248.54,7.62,0.0,984.375,984.375,0.49647083492442484,0.04559597630883185,0.40893742517447995,65.93845562154165,0.2724645163064295,67.05967491719595,0.020833333333333332,18,1.184296308333333,0.09508802304494819,5.23428564298113e-05,33.02266666666666,0.019482185594935888,2.4861117855119674e-05,73.79966666666668,1.048804027875983,3.6199999999999903,-0.0018538546695569277
S030,14003.0,14032.984375,N2,1.0368802083333333,107.46987473292528,-702.61,567.63,1270.24,1.2149999999999999,0.0,984.375,984.375,0.4874065081291659,0.12489144591960208,0.5141983630829859,65.77610098178613,0.30338034522798346,67.2532527094415,0.019791666666666666,17,1.1435970583333335,0.011586181564185144,-1.929524199632214e-05,33.06466666666667,0.013597385369582883,1.694444904092307e-05,70.187,0.4878056306904769,2.030000000000001,-0.0002276736728715484
S030,14033.0,14062.984375,N2,0.24893749999999953,41.30031782333634,-134.0,331.84,465.84,0.37,0.0,984.375,984.375,0.398661769671011,0.03225804701500421,0.10204080746882048,65.93182382341357,0.27542207310512556,66.55824516917495,0.0020833333333333333,2,1.1243046666666667,0.004360972997954572,-5.149171969718955e-06,33.10000000000001,0.019148542155126166,1.8125004916721164e-05,71.01966666666667,0.8260850776739377,2.819999999999993,0.0013923962110449807
S030,14063.0,14092.984375,N2,-1.6580260416666668,77.27665770025409,-357.07,607.12,964.19,2.2350000000000003,0.0,984.375,984.375,0.32226244211391164,0.0,0.03225804701500421,65.98716648534047,0.22385092350927252,66.55824516917495,0.0010416666666666667,1,1.1174076750000002,0.004086239726534464,-2.3394409557945394e-06,33.11933333333334,0.015260697523013485,7.0833352548111406e-06,74.44966666666667,0.5811109092840098,2.0,0.0007785766000913092
S030,14093.0,14122.984375,W,1.6663333333333334,223.73556919104985,-1718.34,1413.04,3131.38,4.475,0.0,984.375,984.375,10.81866876052687,7.085508167962542,5.831192966703345,65.76403290589133,1.78486020540586,98.60527369263775,0.0375,20,1.0480841416666666,0.11591676779434572,-0.00015683888564422898,33.111333333333334,0.04951318567367195,-4.3750011867949704e-05,74.57799999999999,0.3878779876885689,1.3200000000000074,0.0006070834980152719
S030,14123.0,14152.984375,W,-1.3285520833333329,198.67882552099894,-1074.54,899.62,1974.1599999999999,1.21,0.0,984.375,984.375,28.769002702440968,12.87028091610183,12.120725012407009,65.95323972561793,6.237851769252971,113.27841806805037,0.075,25,0.5955638083333333,0.4391404520247915,-0.0003748675381042584,33.07533333333333,0.03095516470998449,-1.2361114464279522e-05,78.26133333333334,2.0363492387658417,6.8799999999999955,0.0036070843118175743
S030,14153.0,14182.984375,W,-0.19544791666666658,15.558395372602023,-45.56,68.17,113.73,-0.81,0.0,984.375,984.375,0.4090767042988393,0.3318963165365888,0.08533405557962581,65.68286725185473,0.3330909413779396,66.73829485385434,0.30833333333333335,153,0.4178450333333334,0.003637766707137162,5.581782330127586e-06,33.06466666666667,0.011469767022725296,8.333335593896591e-06,82.244,0.9914521336571593,3.299999999999997,-0.0013804864855920384
S030,14183.0,14212.984375,W,-0.3462552083333332,19.555123425190956,-51.63,83.67,135.3,-1.51,0.0,984.375,984.375,0.49682586235017995,0.2943625410196677,0.13928372696486196,65.80586703238684,0.36421941531052804,66.73829485385434,0.0375,33,0.4305714666666667,0.004550424051546065,7.375476393087131e-06,33.10600000000001,0.01959591794226544,2.916667457863274e-05,75.01766666666666,2.7784896176800014,9.519999999999996,-0.00500218885693057
S030,14213.0,14242.984375,W,0.009968750000000111,18.610630393537363,-148.86,53.3,202.16000000000003,-1.22,0.0,984.375,984.375,0.49727992759500045,0.33767356648100244,0.2200827456448041,65.88452123868811,0.3759248358233541,66.73829485385434,0.05416666666666667,48,0.4427852916666667,0.003957226361135272,5.924442796344079e-06,33.148999999999994,0.016196707484340614,2.177083923904943e-05,68.836,0.34666602564043253,1.1099999999999994,-0.00013756948176255472
S030,14243.0,14272.984375,N2,0.3462656250000001,21.914942770341884,-139.06,99.52,238.57999999999998,-0.82,0.0,984.375,984.375,0.48491904930101487,0.3877897102489956,0.3365324995656272,65.92859366179275,0.4014508415998565,66.73829485385434,0.09583333333333334,82,0.4546255083333334,0.0034765029771209105,5.186154401626087e-06,33.196333333333335,0.024287628309262017,2.3854173137524614e-05,69.78466666666668,0.07881342243270235,0.3300000000000125,4.277778938199559e-05
S030,14273.0,14302.984375,N2,-0.10619791666666668,14.85846450759058,-39.0,40.49,79.49000000000001,-1.85,0.0,984.375,984.375,0.4509057243174256,0.38349181506548774,0.4394290309752974,65.9324672725297,0.38779421965619276,66.73829485385434,0.09479166666666666,78,0.464789475,0.003888411097870396,6.055412015899524e-06,33.252,0.02650786046942886,4.034723316711153e-05,70.59433333333332,0.28577010962582333,1.1999999999999886,0.0004837848534572615
S030,14303.0,14332.984375,N2,0.22811979166666654,29.717772804758322,-190.1,212.52,402.62,-0.135,0.0,984.375,984.375,0.2162430755153407,0.3487079325484613,0.42096609910683097,65.8391761516888,0.3174906826368787,66.73829485385434,0.12604166666666666,101,0.47639486666666664,0.003270284454838075,4.613724341830605e-06,33.30866666666667,0.016275407487644434,1.6527782261225796e-05,73.79033333333334,1.3629024991620722,4.539999999999992,0.0024205909344050926
S030,14333.0,14362.984375,W,-0.6896875,75.86251757775823,-646.79,626.5,1273.29,-1.09,0.0,984.375,984.375,1.1936131938769872,0.6728747406959683,1.1451418367996555,65.88382023607895,0.5518358149860482,70.16409338115899,0.08125,59,0.48647338333333334,0.005703312363856836,8.641956337336246e-06,33.34066666666668,0.013888444437332116,1.6597226724507726e-05,76.04333333333334,0.139865014289572,0.5999999999999943,0.00012201392198728303
S030,14363.0,14392.984375,N2,0.37993749999999965,45.31750680725121,-306.56,369.96,676.52,1.2850000000000001,0.0,984.375,984.375,0.2108982731015648,0.49495720914932523,0.5059369745553512,65.8208461543038,0.39864754458450435,66.59579566308972,0.29270833333333335,162,0.49531355833333335,0.0031312194291144607,3.5737789642412527e-06,33.35633333333334,0.01580787426850348,8.298613362253048e-06,71.62100000000001,1.671606712118613,5.670000000000002,-0.002731910463300365
S030,14393.0,14422.984375,W,0.28241666666666654,20.165598824001123,-142.89,84.13,227.01999999999998,-0.12,0.0,984.375,984.375,0.12849286620924397,0.4986690184185855,0.47461492980859993,65.85945595296424,0.38294244070840394,66.40030120413611,0.3177083333333333,192,0.5035343916666667,0.0035085706474665542,4.688149926255949e-06,33.38533333333333,0.016878651868229417,2.3263895199624184e-05,70.09166666666667,0.3602691894804358,1.0100000000000051,-0.0005857987700192004
S030,14423.0,14452.984375,N2,0.007666666666666622,19.588024199892025,-149.34,82.9,232.24,-0.27,0.0,984.375,984.375,0.09128709291752768,0.48072211307573515,0.49539436976738266,65.76810876500497,0.38815092572613585,66.34003316248794,0.24270833333333333,154,0.5121503416666667,0.0033649600802382776,4.3553746623737605e-06,33.419333333333334,0.01236482466066231,8.611113447026503e-06,72.93299999999999,0.9733315639253328,3.8200000000000074,0.0014747573444979765
S030,14453.0,14482.984375,W,-0.21850520833333334,13.664525014040843,-53.79,40.78,94.57,-1.48,0.0,984.375,984.375,0.17969580294826654,0.48858053327982676,0.5024667882197678,65.78565303104558,0.38989991734801444,66.34003316248794,0.25104166666666666,160,0.520680775,0.00336781901102801,4.738764089291478e-06,33.437999999999995,0.013266499161423102,1.1527780904890012e-05,74.152,0.6924805653109208,1.8299999999999983,0.0012203475532626819
S030,14483.0,14512.984375,N2,0.080640625,17.02926815245886,-50.09,55.84,105.93,-0.065,0.0,984.375,984.375,0.2343726851737539,0.4287201864431962,0.39083327780738764,65.56827998244371,0.3394752968957005,66.59579566308972,0.2947916666666667,180,0.5292006166666667,0.003048278137417179,3.4804280274598566e-06,33.456,0.012806248474864593,3.4027787008412567e-06,76.87533333333334,1.443767602105301,3.8300000000000125,0.0024895145642129354
S030,14513.0,14542.984375,W,-0.4013645833333333,60.15624460876509,-729.35,505.45,1234.8,0.05,0.0,984.375,984.375,0.5795674572472129,0.5504693388877855,0.6626760444821855,65.70922306529434,0.3967104175464076,67.67569726275453,0.15416666666666667,117,0.5365995083333334,0.003441969494334674,4.442102550483536e-06,33.465333333333334,0.013349989596332951,6.180557232139505e-06,77.30333333333334,0.47039227128949374,1.4399999999999977,-0.0008202085558291426
S030,14543.0,14572.984375,N2,0.1426979166666667,43.87415249314885,-302.61,184.27,486.88,-0.6499999999999999,0.0,984.375,984.375,0.26244832494014686,0.0,0.4854658415721268,65.8388804491166,0.22626578824891114,66.27216610312357,0.0125,8,0.5466674666666667,0.003320313915714725,3.8063057200264997e-06,33.48333333333334,0.009428090415822108,3.7500010172534656e-06,74.99566666666666,1.2496524405698664,3.450000000000003,-0.0021428130812752503
S030,14573.0,14602.984375,N2,0.05096354166666659,13.359306367610213,-36.98,34.38,71.36,-0.225,0.0,984.375,984.375,0.2870750936166354,0.05581428468591173,0.2943625410196677,65.88672664287341,0.21814128588651052,66.59579566308972,0.0010416666666666667,1,0.5539487583333333,0.003006111178349399,3.5098679225987154e-06,33.48866666666667,0.011175369742827436,3.0555563844280597e-06,73.02566666666668,0.3434014495536613,1.1200000000000045,-0.0006163543338634809
S030,14603.0,14632.984375,N2,0.25295833333333356,34.997098894621686,-162.28,241.9,404.18,-0.52,0.0,984.375,984.375,0.4490537891562163,0.05589199343873463,0.5886283122060605,65.69310247219848,0.24502566647826812,66.59579566308972,0.20833333333333334,101,0.5629382916666666,0.002990895636192823,2.8398894422443213e-06,33.498000000000005,0.01469693845669911,6.805557401681427e-06,72.66466666666665,0.7167367407602009,2.219999999999999,-0.000734097421358894
S030,14633.0,14662.984375,N2,-0.10487500000000001,12.075698930988425,-29.63,38.31,67.94,-0.21500000000000002,0.0,984.375,984.375,0.04564354645876384,0.0,0.1821904480893551,65.59586565657678,0.07979409543466638,66.27216610312357,0.035416666666666666,31,0.5688104,0.003128357799762253,3.2713355228232163e-06,33.514333333333326,0.01584999123729201,-2.9513896895050053e-06,72.37733333333333,0.3434427010272449,1.0499999999999972,0.0005656251534356437
