participant_id,window_start_time,window_end_time,sleep_stage,BVP_mean,BVP_std,BVP_min,BVP_max,BVP_range,BVP_median,SDNN,median_nni,IBI_mean,x_std,y_std,z_std,mag_mean,mag_std,mag_max,movement_density,burst_count,EDA_mean,EDA_std,EDA_trend,TEMP_mean,TEMP_std,TEMP_slope,HR_mean,HR_std,HR_range,HR_trend
S033,6638.0,6667.984375,W,-0.11878645833333312,104.83294208692338,-731.22,341.83,1073.05,13.870000000000001,61.38213870919331,906.25,946.38671875,22.64046123704289,17.869802292817205,10.097040818474023,63.480668924646515,2.308382813302815,92.09234495874236,0.04375,10,0.09689664999999999,0.014235008798527897,-1.1151478285448748e-05,35.760000000000005,0.028166173565704684,4.437501203749441e-05,62.80533333333333,0.1464634956415957,0.5400000000000063,-2.625000712077073e-05
S033,6668.0,6697.984375,W,0.4986927083333326,183.65007380746925,-676.35,517.46,1193.81,15.955000000000002,0.0,1031.25,1031.25,16.66959085675462,19.45866300577257,16.960020359115056,65.21509579585464,4.058893158341981,94.68368391650169,0.05520833333333333,23,0.10601108333333333,0.00817966941526707,-7.003039660112749e-06,35.82899999999999,0.021031722072462303,-8.993057995078629e-06,67.90466666666666,2.7557984122371666,8.360000000000007,0.00485034853796347
S033,6698.0,6727.984375,W,-1.7657291666666661,85.68206816292805,-533.45,412.26,945.71,5.154999999999999,28.311882079667637,984.375,1001.1962890625,19.213530767142476,35.88791137917784,15.439025312634431,65.04688816763108,3.4127893832411376,101.03959619871806,0.051041666666666666,22,0.12236144166666667,0.027172598941395548,3.8148402058485796e-05,35.76,0.021134489978864315,-2.5625006951229034e-05,71.22233333333334,0.4548676242112164,1.2800000000000011,-0.0006869793530217454
S033,6728.0,6757.984375,W,0.9695989583333334,199.2579922006361,-1188.39,1306.3,2494.69,4.08,30.006576806175197,1015.625,996.4518229166666,35.649077374666106,30.462821271473008,16.399903898293548,64.67621204845686,5.111169474433102,135.2553141285029,0.034375,13,0.12049383333333334,0.01893592745476762,-2.7567602530274127e-05,35.77066666666666,0.01824524291120568,6.94444632822002e-08,67.88766666666666,1.7932274132288843,5.469999999999999,-0.0030300355441719683
S033,6758.0,6787.984375,W,0.48325520833333346,25.32849876451495,-156.71,63.85,220.56,2.0,54.554329657436796,1015.625,1050.0325520833333,0.5263829338566701,0.3265571005667394,0.35811372873478803,64.2914209526377,0.42898161274526236,65.70388116390082,0.36041666666666666,219,0.114261075,0.001695669313095865,2.6185712398467998e-06,35.74933333333333,0.0131487219488794,-9.236113616568721e-06,67.38300000000001,0.3131149948501353,1.1099999999999994,0.0002405903430420865
S033,6788.0,6817.984375,W,-1.4871874999999999,49.290940557552524,-487.07,374.13,861.2,0.535,113.05512290473985,1078.125,1009.2610677083334,3.19458906677456,1.4283217710296312,4.397536696044225,64.37413310234231,1.692245743161938,99.58915603618699,0.026041666666666668,12,0.116544975,0.0013735096617940711,9.394783364470311e-07,35.732,0.01077032961426924,-4.6527790399253255e-06,64.416,1.4196656883459096,5.060000000000002,-0.0025393756888497415
S033,6818.0,6847.984375,W,1.4453437499999997,69.0716628324839,-387.28,604.09,991.37,0.48,91.80338374300803,1031.25,986.7024739583334,1.20450362932436,0.5642680546513332,2.2917386352335694,64.58172627384396,0.572463818618028,70.22107945624305,0.07708333333333334,59,0.11847667499999999,0.0009917652037528847,7.338966834572163e-07,35.726,0.013063945294842758,-4.444445650077392e-06,65.368,2.599767169062133,8.050000000000004,0.004660695708739071
S033,6848.0,6877.984375,W,0.06681250000000001,13.033598371382725,-43.31,46.56,89.87,0.175,113.2880522340915,1000.0,1027.5634765625,0.3521865603112772,0.4257142690689248,0.691370889318622,64.6113429670228,0.2802260951821671,65.71149062378664,0.13958333333333334,112,0.11978921666666667,0.0008421241019324587,3.741667681658976e-07,35.71399999999999,0.01380821011813769,-1.2986114633818733e-05,69.318,0.16783722272885046,0.5799999999999983,-8.993057995078737e-05
S033,6878.0,6907.984375,W,0.06115625000000001,16.21647338281619,-33.84,47.58,81.42,0.305,86.61619275513762,1000.0,1016.9108072916666,0.5114986406384674,0.4794734072541343,0.4865542375128046,64.52571562514026,0.43510312593317074,65.83312236253116,0.06875,58,0.12104885833333334,0.0011335386649473224,7.750473022589262e-07,35.70100000000001,0.016999999999999835,7.1875019497339206e-06,63.71966666666666,3.0054844127953078,9.689999999999998,-0.00537725840311914
S033,6908.0,6937.984375,W,-0.5389218749999999,64.21095441844194,-487.49,314.4,801.89,-0.5,125.11319333559582,1140.625,1040.1529947916667,1.254282594309946,0.914694255802026,3.1898105732246163,64.57885772344841,0.5034151381062102,72.5120679611332,0.07916666666666666,59,0.12026984166666667,0.002332484508686798,-2.244238238996917e-06,35.728,0.02006655592438962,2.8958341188785645e-05,61.632666666666665,1.7315290609426364,4.100000000000001,0.0028961813411950248
S033,6938.0,6967.984375,W,-0.620036458333333,53.83956973179597,-549.3,532.47,1081.77,-0.175,265.0125000312758,875.0,825.5777994791666,8.0816911991791,5.386384805789656,8.388649480349425,64.71637509552053,4.55660723520145,117.98728745080972,0.028125,14,0.12347159999999997,0.017052814691618116,1.4800178493972026e-05,35.757333333333335,0.015040685563572395,1.2708336780691956e-05,61.858,0.4659856936287502,1.6500000000000057,-0.0006101390543997011
S033,6968.0,6997.984375,W,2.239843749999999,128.2267099819226,-402.51,766.19,1168.7,-1.19,0.0,437.5,437.5,1.2955749842948328,0.6125770572276329,1.5536694915228557,64.3318874193724,1.1254307595444808,77.69169839822013,0.017708333333333333,8,0.12294872500000001,0.001084091162852556,1.0477049283053766e-06,35.745,0.022620050103099736,-2.8715285567300142e-05,63.614999999999995,0.9315247357603201,3.950000000000003,0.0011702433730043883
S033,6998.0,7027.984375,W,-0.6473749999999988,180.81049068530115,-736.26,635.42,1371.6799999999998,-9.25,0.0,437.5,437.5,1.2472326137125878,0.5979965103484208,1.9801050407042102,64.34870138583243,0.7358702038861762,75.93418202627852,0.017708333333333333,9,0.12550989166666668,0.0018632333133374727,2.2267690502303084e-06,35.67766666666667,0.02666874991862665,-4.2951400540202963e-05,70.05366666666666,1.910543523596245,6.310000000000002,0.0033795495278725928
S033,7028.0,7057.984375,N1,-0.5476093749999997,46.11787739341974,-389.43,323.31,712.74,-0.15,0.0,437.5,437.5,0.7618273159811219,0.487739213033518,1.0606519876419827,64.48769574756649,0.33480915354293717,65.62011886609167,0.0625,45,0.12818864166666666,0.0012698791267664892,-1.753392402721465e-07,35.61333333333334,0.020709632756011894,-3.0208341527869715e-05,66.46133333333334,2.468922482019682,8.0,-0.004292015053172488
S033,7058.0,7087.984375,W,-0.08305208333333328,28.06174584468069,-138.89,227.84,366.73,-0.44,0.0,437.5,437.5,0.5288507915492066,0.3591802008277553,0.5917831091404087,64.39885275995047,0.37535077223867974,65.98484674529449,0.08645833333333333,68,0.12895711666666668,0.001131113199340468,-4.187804955459235e-08,35.574000000000005,0.017435595774164335,-2.1111116837870228e-05,63.43333333333333,1.005277186761055,3.1000000000000014,-0.0014129170499449456
S033,7088.0,7117.984375,W,-0.2073177083333338,124.01421849657292,-696.27,646.41,1342.6799999999998,-1.435,76.84597380584485,593.75,529.7037760416666,4.641587652678768,2.238657512125788,4.18802805542842,64.50310075483608,2.24002262149284,92.47702417357513,0.04583333333333333,18,0.13162537500000002,0.0030775722738940973,3.7107798694606913e-06,35.532999999999994,0.020840665376453175,-2.6215284889127367e-05,63.76633333333333,0.5121359411545153,1.6699999999999946,-1.121528082011799e-05
S033,7118.0,7147.984375,N2,0.36378645833333284,80.61330735941274,-858.8,471.51,1330.31,0.845,233.79719343912063,1000.0,856.2581380208334,1.3670159614609074,0.8791808598775339,5.252551360046901,64.69493944754842,0.6787070143856784,73.41661937191061,0.075,44,0.14032370833333332,0.0012990597009365015,1.7037081444520846e-06,35.400333333333336,0.05642005159712459,-9.65625261942614e-05,66.47,1.910284446533204,5.57,0.0029755563627268783
S033,7148.0,7177.984375,N2,-0.31292187500000007,28.593562073228355,-183.82,76.91,260.73,3.385,46.57078608803744,1031.25,1027.4332682291667,1.831078158414387,0.3817903729651768,7.842980539947806,64.6939119691595,0.5808075929037951,70.80254232723568,0.06875,50,0.14208457500000002,0.0027082864559917494,-2.362751726006879e-06,35.32266666666666,0.0118133634311119,4.236112260230323e-06,66.79866666666666,0.22529585487137144,1.1700000000000017,-0.0002124306131810457
S033,7178.0,7207.984375,N2,0.26068229166666673,23.622976050938803,-120.99,138.11,259.1,1.2149999999999999,71.250227245541,1000.0,1061.2630208333333,1.3679899430825506,0.4754383941865304,2.719795456718922,64.63260791103674,0.5880359554128366,69.26037828369117,0.03958333333333333,27,0.13823171666666664,0.0016263111437818116,-1.402481283225178e-06,35.398999999999994,0.020058248511106352,2.5868062572715625e-05,60.022333333333336,2.9077077837285423,8.590000000000003,-0.004659410986168344
S033,7208.0,7237.984375,N2,-0.0374739583333333,12.85844776322283,-148.68,51.6,200.28,0.73,80.95336913960239,1046.875,1050.1546223958333,0.27400189767692407,0.07902948640996107,0.3225047776347231,64.5610574886344,0.23062801776389563,65.612498809297,0.06458333333333334,53,0.13718566666666668,0.0009665665551608746,1.9341064274377204e-07,35.436,0.01280624847486707,1.201389214786687e-05,58.45,0.4843621234847608,1.6499999999999986,0.0008608335668493834
S033,7238.0,7267.984375,N1,0.02323437500000003,8.12638449789132,-31.97,25.12,57.09,0.685,76.56734693413519,1156.25,1120.6624348958333,1.196910356309806,0.4861080109028125,1.6586251313629878,64.28690073557408,0.3515117083567904,65.68104749469211,0.11041666666666666,79,0.13685485,0.001049401556840851,2.8037724619608393e-07,35.449333333333335,0.015040685563571387,3.819445480535395e-06,59.39933333333333,0.30561340866453424,1.0999999999999943,-0.00033527786872772066
S033,7268.0,7297.984375,N2,-0.05308854166666661,10.336537852870613,-32.57,46.41,78.97999999999999,1.28,64.78813063610446,1156.25,1110.0423177083333,1.1639547163000896,0.20740417800891947,1.5959254624189758,64.21338598970766,0.381085821675564,69.49100661236676,0.11458333333333333,75,0.13752716666666664,0.001443164684142306,-6.592080781271918e-07,35.44199999999999,0.011075498483891898,1.388889265644249e-07,58.04899999999999,0.6808443287565813,2.1300000000000026,-0.0012005211589955398
S033,7298.0,7327.984375,N2,0.032833333333333464,23.308975452810497,-152.95,167.28,320.23,-0.26,15.639774966316148,968.75,974.7314453125,2.641050261614686,1.0268529998657712,5.346258751584036,64.43301263030087,0.716187859543337,70.37044834303673,0.04895833333333333,21,0.13515807500000002,0.001191494797600189,2.3569472539461873e-07,35.44066666666666,0.012364824660662872,6.1111127688575e-06,57.05866666666666,0.6003595219162895,1.8099999999999952,0.0009980558262955256
S033,7328.0,7357.984375,N2,0.03163541666666658,15.778464444998411,-76.22,122.83,199.05,0.14,23.125981490467836,921.875,941.50390625,0.32434328682482905,0.21133001032482082,0.48872264771431345,64.37360366220666,0.29507322447215556,65.81033353509159,0.071875,56,0.13496593333333334,0.0037161660434138575,-2.2227549432386353e-06,35.44466666666667,0.012578641509409341,-7.222224181375886e-06,60.04966666666667,1.067353372703821,3.039999999999999,0.0018955213475264066
S033,7358.0,7387.984375,W,-0.28483333333333294,184.1373455509086,-785.64,819.03,1604.67,0.79,0.0,921.875,921.875,22.640266488419847,39.67460681592527,23.596800276519073,65.28583054488362,8.563483329312183,192.34864179400904,0.07395833333333333,30,0.15055864166666666,0.023685029438373036,-1.0460579009488667e-05,35.37133333333333,0.07297183627187218,-9.687502627903294e-05,66.09266666666666,4.2288894786009985,13.220000000000006,0.007467988136932544
S033,7388.0,7417.984375,W,0.2875052083333333,81.9535005650751,-520.66,422.32,942.98,1.2149999999999999,62.015806315379045,1109.375,1084.9202473958333,14.385907659675434,8.375080586262373,11.794252835877193,64.47725838845685,4.8720957887584415,112.37882362794157,0.04479166666666667,20,0.11131541666666665,0.01957967820878888,-7.388567542471668e-06,35.285000000000004,0.06009714358159394,-9.996530489510298e-05,84.10333333333331,5.274611096775024,18.599999999999994,0.00950264146664536
S033,7418.0,7447.984375,N1,-2.5174010416666666,42.03901922700305,-674.35,74.99,749.34,0.815,0.0,1109.375,1109.375,18.455603635632066,7.89726783088356,12.65822939768335,64.24145178211498,1.9127962758390562,77.23341245859851,0.035416666666666666,11,0.12227619166666666,0.007059332235058112,-3.893549450290109e-06,35.15599999999999,0.026280537792568552,-4.0902788873367674e-05,102.19333333333334,3.1459692023639114,11.5,0.005456668146882635
S033,7448.0,7477.984375,N2,2.587874999999999,90.3484289274088,-583.33,611.57,1194.9,1.145,59.279515636694384,1015.625,1044.7265625,5.47721923566654,6.171412078279214,4.2592208743615565,64.09401969875935,2.7424846742294826,110.18166816671456,0.027083333333333334,8,0.12019497500000001,0.002489232928911032,-2.228427253805132e-07,35.103333333333346,0.01074967699772985,1.8055560453437927e-06,113.05499999999999,4.524868874711546,15.0,0.008115314701420002
S033,7478.0,7507.984375,N1,-0.10081249999999997,86.76681565028098,-725.26,461.9,1187.1599999999999,1.9,155.60167892822926,593.75,693.0013020833334,11.113552113595238,11.634516294244538,19.0044406988483,64.44221715217711,7.345465053009542,142.2603247571156,0.04791666666666667,13,0.12629973333333333,0.010156133172237465,7.476246819728408e-06,35.071000000000005,0.023993054550571928,-1.8506949464776914e-05,124.91366666666666,1.3925551654742048,4.819999999999993,0.0018803130100675494
S033,7508.0,7537.984375,N1,-0.015114583333333412,10.555543571556955,-28.4,24.3,52.7,1.295,111.3008509609202,1046.875,1034.8470052083333,1.070093372743187,0.6221732952923968,0.6204696921598095,63.81257069124396,0.34246183484512277,65.1536645170477,0.11979166666666667,74,0.12673734166666664,0.0010890784597985617,-1.1008147517401056e-06,35.05866666666667,0.013349989596334925,-1.1180558588477037e-05,105.35833333333333,10.815837179288938,36.849999999999994,-0.019481915007029893
S033,7538.0,7567.984375,N2,0.06335416666666666,9.069005033146285,-18.62,27.97,46.59,1.68,100.88854818845583,1109.375,1088.4847005208333,0.5161445194231511,0.626609039903582,0.4891786891623096,63.80634067600639,0.36063306015694574,66.25707509390978,0.07395833333333333,38,0.12457075833333332,0.0010020574334490791,-7.06378012797856e-07,35.034666666666666,0.013097921802924314,-5.416668136031946e-06,67.87433333333334,8.93026900801737,28.199999999999996,-0.016004136285844257
S033,7568.0,7597.984375,N2,0.023567708333333333,10.532951777962051,-29.56,44.94,74.5,1.635,84.42194656914094,1078.125,1070.8740234375,0.5817976437421253,0.4995560094696312,0.4915066388581813,63.8421046405932,0.31827670280374576,65.02307282803544,0.07291666666666667,46,0.12433596666666666,0.0009580499981153871,-8.418405061416898e-09,35.02933333333332,0.0136463263269718,5.416668136032192e-06,56.623333333333335,0.15580614736125,0.6599999999999966,0.00020326394402776294
S033,7598.0,7627.984375,N2,-0.09155208333333338,9.532895288999944,-18.87,22.94,41.81,2.215,118.45421986477224,1015.625,1050.8707682291667,0.05581428468591172,0.41197356981027583,0.4979896651510171,63.84056706139442,0.3426571847617912,64.56779382943171,0.0375,35,0.12365301666666667,0.001056554502327682,-6.73632995234647e-07,35.05866666666667,0.016069294390926088,1.5486115311988796e-05,57.16,0.220348209280977,0.8699999999999974,6.263890588077917e-05
S033,7628.0,7657.984375,N2,0.052364583333333346,9.084088580933459,-21.88,18.3,40.18,1.85,91.13478784391089,1046.875,1028.8981119791667,0.2918135790715633,0.39514743204980535,0.5029038937897466,63.79760286338668,0.3739347789776409,65.02307282803544,0.0625,44,0.12336491666666666,0.000877198643251474,-2.7427741815251225e-07,35.086,0.020264912204761575,2.777778531298474e-05,56.26366666666667,0.16090335263408573,0.7199999999999989,-0.00012961809071671403
S033,7658.0,7687.984375,N2,-0.1111927083333333,10.102518641426181,-79.95,36.44,116.39,1.125,140.307567625854,1046.875,1013.9404296875,0.20956925068657695,0.5006896285790896,0.48517966317185596,63.75335880076071,0.3548355790128091,65.02307282803544,0.05625,41,0.12156125833333335,0.0010917479447796364,1.0338913394887453e-07,35.13066666666667,0.013148721948876965,-6.250001695424664e-07,56.169666666666664,0.3229704148817486,0.8499999999999943,-0.0005611459855539237
S033,7688.0,7717.984375,N2,0.09641145833333337,9.707546151248456,-48.06,58.34,106.4,2.2,97.65462102591032,1093.75,1100.4069010416667,0.2640804768700043,0.4742272588702125,0.5070584679606047,63.79453608406605,0.3720427647384213,65.57438524302,0.06979166666666667,48,0.12163596666666668,0.0010121915821073074,4.200244194944719e-07,35.127,0.01530795000427301,1.2326392232635835e-05,55.167,0.29960140186587875,1.0499999999999972,-0.0005106598607475746
S033,7718.0,7747.984375,N2,-0.01882812499999996,6.716754775965771,-14.34,23.97,38.31,0.805,118.3657088786429,984.375,1075.4231770833333,0.1439611975113047,0.47495887979908324,0.49344553728237217,63.92859686118654,0.31643065573567886,64.83054835492293,0.08125,70,0.12259652500000001,0.0010319621598561676,-1.3586527123081397e-07,35.116666666666674,0.01885618083164103,-2.5833340341075287e-05,54.98533333333333,0.21752752060882388,0.7100000000000009,-0.00022138894894448377
S033,7748.0,7777.984375,N2,0.02758333333333336,7.806467744049732,-20.25,17.76,38.010000000000005,1.71,105.97690065877315,1000.0,1010.7747395833334,0.14420218733893508,0.4041398186959008,0.4764597452974269,63.92004530729903,0.32386918064677134,64.83054835492293,0.058333333333333334,47,0.1215399,0.0009839547703019715,1.601250434366991e-07,35.077333333333335,0.01590248058916929,-1.1319447515040453e-05,55.315333333333335,0.3222807609661007,1.1999999999999957,0.0005479862597618982
S033,7778.0,7807.984375,N2,-0.0538333333333333,7.142580466625645,-16.87,14.83,31.700000000000003,1.5550000000000002,97.39193526030473,1109.375,1077.8889973958333,0.1329706982655285,0.37077334486703445,0.47530029798422063,63.89844931652621,0.31893041560683416,64.56779382943171,0.03229166666666667,29,0.12163597500000002,0.0010122129343053297,1.2315172611537722e-07,35.098000000000006,0.01599999999999948,1.930556079252222e-05,56.22033333333333,0.4000290267245892,1.1000000000000014,0.0005629515415992676
S033,7808.0,7837.984375,N2,-0.039619791666666695,7.559615091007718,-18.86,15.72,34.58,0.825,95.12598796414423,1062.5,1043.4895833333333,0.07902948640996106,0.3421680772011842,0.4568809849129202,63.9204565486044,0.3116241614144556,64.56779382943171,0.03229166666666667,28,0.12206294166666667,0.0009754480961403812,-1.8816867083568603e-07,35.14766666666666,0.018562207723099643,2.7256951838362907e-05,56.217666666666666,0.2715963099078408,0.8300000000000054,-0.00039635427418464463
S033,7838.0,7867.984375,N2,0.06606770833333338,6.244725991920348,-15.3,14.7,30.0,1.34,101.74104565026194,953.125,988.5416666666666,0.1020408074688205,0.34519896637865083,0.4491009054365053,63.93089797241703,0.30562958038084403,64.56779382943171,0.035416666666666666,28,0.12179609166666669,0.0009118002430707588,-1.2785745655855525e-07,35.138999999999996,0.020223748416155273,-2.9687508053249934e-05,54.31233333333333,0.45892398305408083,1.6799999999999997,-0.0005060070817076505
S033,7868.0,7897.984375,N2,0.01073437500000004,7.040591448896654,-14.72,24.17,38.89,1.67,101.86929776511964,1109.375,1078.759765625,0.13257842935619488,0.3225064598836226,0.4222940305804581,63.951533604287,0.28740156532297295,64.56779382943171,0.027083333333333334,23,0.12123031666666667,0.0009712819534283337,-2.0851568156349893e-08,35.129,0.01757839583124628,2.107639460622698e-05,54.417,0.15152887513606098,0.5499999999999972,0.00019927088738902013
S033,7898.0,7927.984375,N2,0.049791666666666665,6.213235776209035,-22.36,31.74,54.099999999999994,0.72,68.17640249341238,1031.25,1038.818359375,0.1853786243745487,0.35577911130597123,0.42478420787958787,63.97153079146153,0.2823234500046685,65.02307282803544,0.036458333333333336,27,0.12108087500000003,0.0009769229034959736,3.0162443077919757e-07,35.15466666666665,0.006699917080745928,-1.388889265648938e-06,57.358,1.4563387884234444,4.170000000000002,0.0025047923461350764
S033,7928.0,7957.984375,N2,-0.11819270833333331,5.222648824505961,-12.55,19.01,31.560000000000002,-0.13,65.0197160399321,1093.75,1062.6057942708333,0.18540203593961838,0.33254953421758593,0.4424705243635507,63.94873311135951,0.2960717009652282,64.87680633323437,0.028125,16,0.12099547500000002,0.0009202196745207103,-4.5785754607680926e-07,35.13433333333333,0.013585122581542215,-1.8645838391339465e-05,58.801666666666655,0.23128745942849732,0.7199999999999989,-0.00028496535507957754
S033,7958.0,7987.984375,N2,-7.812500000003257e-05,6.42692483684692,-12.97,18.51,31.480000000000004,0.28,78.38613947031325,1015.625,1016.0725911458334,0.07216126567549165,0.2807402788462437,0.3927939782825088,63.97307012957105,0.27470868870842535,64.56779382943171,0.029166666666666667,25,0.12000271666666666,0.0009727357998906401,2.006923287468332e-07,35.10000000000001,0.016124515496596534,-2.4513895538707068e-05,56.666000000000004,1.286109378448556,3.289999999999999,-0.0020602783366640435
S033,7988.0,8017.984375,N2,0.015312499999999988,5.82730684885197,-13.16,15.91,29.07,0.485,81.11724278020937,1062.5,1044.189453125,0.10703853634971328,0.28563518095154566,0.40670914224896504,63.95942581989026,0.2816891725917765,64.56779382943171,0.023958333333333335,20,0.12009880833333335,0.0010255493511271009,-3.0886141190901973e-07,35.08466666666667,0.016275407487645638,-2.2500006103518107e-05,55.58833333333334,0.13895043080977584,0.45000000000000284,0.00010510419517800432
S033,8018.0,8047.984375,N2,0.057822916666666654,5.749203273597264,-12.78,16.74,29.519999999999996,0.575,158.6904914503547,1031.25,1022.2330729166666,0.3687853090439839,0.24521240438421724,0.4897871916001434,63.88167417721217,0.38383501208719273,65.02307282803544,0.08958333333333333,69,0.12003476666666667,0.0010188550414831103,5.573204636828515e-07,35.056,0.015620499351813385,-2.0208338815196863e-05,55.775666666666666,0.07278659827804097,0.2700000000000031,0.00012114586619625346
S033,8048.0,8077.984375,N2,-0.032244791666666606,6.93767851966062,-15.86,18.88,34.739999999999995,0.93,64.22761969817691,1046.875,1036.2955729166667,0.45500567571246353,0.2598556456904914,0.49859176687947826,63.88407665104458,0.4254414689021854,64.56779382943171,0.15104166666666666,106,0.12057915000000001,0.0009155640761301187,1.8403260200537223e-07,35.036333333333324,0.012775845264489955,1.0312502797444256e-05,56.31766666666666,0.42806294968017206,1.230000000000004,0.0007492710365861116
S033,8078.0,8107.984375,N2,0.022276041666666656,6.266336007193598,-44.9,31.65,76.55,0.825,81.43227338409463,1031.25,1046.8912760416667,0.8773622626546891,0.28643939331325685,0.7640687130513125,63.99694090141271,0.5132545772719185,67.05967491719595,0.07395833333333333,52,0.11898895,0.00123713046906945,-1.2253445164237482e-06,35.04066666666666,0.01339983416149341,-1.6666671187788666e-05,57.339666666666666,0.324833119548416,1.0,0.000567465431712628
S033,8108.0,8137.984375,N2,-0.0042760416666666485,5.879838689755952,-11.53,15.55,27.08,0.695,101.89682115081064,1062.5,1061.3688151041667,0.07880950133074056,0.20395397084200695,0.4459878528957438,64.12933208390548,0.320507106795408,64.79197481170026,0.0020833333333333333,2,0.11860469999999998,0.0010877474706934508,6.766342981321339e-07,35.023333333333326,0.01795054935711452,7.5694464977879e-06,57.793,0.12941277628838171,0.38000000000000256,0.00014600698405137387
S033,8138.0,8167.984375,N2,-0.017098958333333317,5.336717875033984,-12.58,13.15,25.73,0.655,110.76036618383242,976.5625,989.1276041666666,0.20956925068657695,0.19868272795814154,0.4155075021885886,64.1471616752257,0.31784274800217654,64.79197481170026,0.0020833333333333333,2,0.11880746666666665,0.0010019118801349515,-2.695647432630048e-07,35.01166666666666,0.015073892072793808,-9.340280311491135e-06,57.98266666666667,0.2932454413778481,0.8100000000000023,0.00046993068303241206
S033,8168.0,8197.984375,N2,0.04072395833333333,15.431301891597945,-154.67,119.75,274.41999999999996,0.495,124.09652999137431,953.125,960.44921875,0.424630916126647,0.3758540621593262,0.5572429885282442,64.03355356278153,0.3964128181441334,65.81033353509159,0.019791666666666666,16,0.11765500833333332,0.000991036952690073,1.41684717253884e-07,34.98933333333334,0.013399834161494602,-1.9236116329241423e-05,57.76366666666666,0.43131182326582307,1.2399999999999949,-0.0007137849158487725
S033,8198.0,8227.984375,N2,-0.053843749999999975,5.933606163252321,-16.53,16.54,33.07,0.95,120.11031712678276,1093.75,1041.1865234375,0.06441510347391795,0.26702246771365307,0.49986868935473666,63.98926401376643,0.3610276672193339,64.79197481170026,0.0010416666666666667,1,0.11841266666666665,0.0009187896144142885,1.4923962381717243e-07,34.974666666666664,0.013349989596334193,1.1736114294736563e-05,56.648999999999994,0.40605705674613385,1.3400000000000034,-0.0006711460153933406
S033,8228.0,8257.984375,N2,-0.0016093749999999795,6.646400111425892,-14.64,15.0,29.64,0.87,103.00992170558203,1078.125,1069.8974609375,0.06451609403000842,0.24148700218070168,0.49895615865914406,63.99641790006865,0.35817262101054,64.41273166075166,0.0010416666666666667,1,0.11833795833333331,0.0008652214205607861,-7.942298161430771e-08,34.976000000000006,0.011718930554165414,-2.1527783617565704e-06,56.43933333333334,0.14385023075716274,0.5700000000000003,6.798612955352891e-05
S033,8258.0,8287.984375,N2,0.035114583333333324,6.040380876460026,-11.97,14.23,26.200000000000003,1.025,109.53923444053726,1078.125,1100.6022135416667,0.05581428468591172,0.22071291921483285,0.48812282152024905,64.04208418214431,0.3550168171741513,64.79197481170026,0.0010416666666666667,1,0.11833793333333333,0.0008652238894580359,-1.7067409143719928e-07,34.977000000000004,0.012423096769056842,-1.045139172401137e-05,56.662333333333336,0.1562835741706585,0.6000000000000014,-0.00024017367626239127
S033,8288.0,8317.984375,N2,0.024213541666666658,6.862699215856442,-17.44,27.37,44.81,0.83,73.3471018697049,1140.625,1113.8509114583333,0.4627626881626862,0.502839161384853,0.6436379015128684,64.02169036592824,0.5393245984984597,68.31544481301428,0.020833333333333332,12,0.11667314166666665,0.002498795007251273,7.054865195004647e-07,34.95466666666667,0.013349989596332953,-8.263891130613008e-06,56.65366666666667,0.3935266474105944,1.0900000000000034,0.0004783681853212303
S033,8318.0,8347.984375,N2,0.00945833333333334,5.8951361500333945,-13.43,14.64,28.07,0.99,66.40277479465591,1062.5,1052.9541015625,0.2883065377722507,0.37136548895783106,0.5090798821294049,63.984346594907905,0.3916514045672447,65.3834841531101,0.01875,17,0.1173668333333333,0.0009891915329646188,4.982978782275069e-07,34.91599999999999,0.02009975124224285,-2.881945226222285e-05,56.648333333333326,0.07677166722749287,0.240000000000002,1.3993059351415226e-05
S033,8348.0,8377.984375,N2,-0.12145833333333338,7.393950290210046,-27.59,40.97,68.56,0.645,102.9576597542923,1046.875,1036.1653645833333,0.07880950133074056,0.20879116360612585,0.46308966726818207,63.832488152670976,0.34143994950879336,64.85368146836385,0.29791666666666666,156,0.11763361666666665,0.0010410160596210287,8.331391148923397e-07,34.90133333333332,0.012310790208411632,1.3541670340077939e-05,56.635,0.23187280996270243,0.7099999999999937,-0.0002130903355822309
S033,8378.0,8407.984375,N2,0.04110416666666669,6.1177889464508315,-13.74,14.42,28.16,1.3050000000000002,77.66726486715156,1031.25,1060.0341796875,0.09636964965693294,0.2254528621587128,0.4816049827140496,63.863175329610904,0.35214128705153674,64.85368146836385,0.340625,172,0.11830594166666665,0.0009212702127663513,-9.856447986232631e-08,34.91466666666666,0.012310790208413427,-1.3125003560385282e-05,56.40933333333332,0.2447438570333387,0.75,-0.0004167362241580465
S033,8408.0,8437.984375,N2,0.018140624999999983,8.965074736571243,-86.01,35.96,121.97,2.2,84.11892268558846,1078.125,1060.2132161458333,0.07880950133074055,0.22511571098733496,0.48246599621113195,63.86283565734957,0.3574984415292981,64.85368146836385,0.3458333333333333,174,0.11792173333333332,0.0010345231247079793,-5.249866875506434e-07,34.91799999999999,0.012220201853216942,5.694445989162252e-06,56.27133333333333,0.25153837789799727,0.759999999999998,-0.00016951393487248738
S033,8438.0,8467.984375,N2,-0.019677083333333303,6.858102659134291,-19.32,27.64,46.96,1.4,97.18228045720635,1140.625,1109.7737630208333,0.12059963032005251,0.28201093051609816,0.5018023072441532,63.84783205833762,0.36395940751098665,66.31741852635702,0.30520833333333336,162,0.11829526666666665,0.0012798634805669272,1.0660727718296375e-06,34.906666666666645,0.010434983894998001,5.7638904524441795e-06,56.219,0.17963574254585332,0.5799999999999983,0.00021482644716429273
S033,8468.0,8497.984375,N2,0.03196354166666669,5.513395576223494,-12.5,12.66,25.16,1.2650000000000001,82.15016258686983,1062.5,1058.9436848958333,0.05581428468591172,0.273829580010796,0.42142594413359136,63.796318731681154,0.3087738423995083,64.33506042586733,0.22083333333333333,147,0.11895689999999999,0.0010608871240617428,-8.505601265625284e-08,34.919333333333334,0.011234866364236283,-1.041666949237017e-05,56.001666666666665,0.18188060797005157,0.6400000000000006,-0.00017135421314947236
S033,8498.0,8527.984375,N2,-0.015937499999999983,5.601358108776872,-13.51,11.09,24.6,1.28,99.25546042077404,1046.875,1030.2734375,0.0,0.21919349883277917,0.4305801964275129,63.80094940198858,0.31999542428123684,64.33506042586733,0.24479166666666666,149,0.11923439166666666,0.0011852814524817377,6.842399859591969e-07,34.86366666666667,0.019058389811895667,-2.2187506018745222e-05,56.168,0.08979235305228797,0.3400000000000034,0.0001539583750972163
S033,8528.0,8557.984375,N2,0.06790104166666665,5.212670642750276,-11.03,12.16,23.189999999999998,1.1549999999999998,83.56583229115536,968.75,1009.1227213541666,0.10187052648664707,0.23115613710698277,0.4866935994259861,63.89786699094179,0.35952840580277395,64.85368146836385,0.37604166666666666,165,0.11963986666666665,0.0010533301708813261,3.59623795470864e-07,34.833666666666666,0.006574360974440332,-4.548612345002864e-06,55.98466666666666,0.2173588942023977,0.6899999999999977,-0.00016680560080447018
S033,8558.0,8587.984375,N2,-0.05804166666666666,5.350853321583131,-12.79,12.71,25.5,0.745,156.62355570437177,1109.375,1065.7063802083333,0.05589199343873463,0.2207841926457196,0.4917185265728759,63.922762913169166,0.3581873998799514,64.85368146836385,0.40625,176,0.11977858333333334,0.0009916265138929829,5.462206342829397e-07,34.80666666666668,0.012736648783028291,-1.3541670340079297e-05,55.44733333333333,0.14417427725576457,0.519999999999996,-8.402780057177646e-05
S033,8588.0,8617.984375,N2,0.027557291666666657,4.919235874123067,-10.96,11.01,21.97,0.995,97.72164117922176,1093.75,1095.1090494791667,0.07216126567549165,0.2432932865162721,0.4963364044565831,63.9338205171585,0.35929664591271404,64.79197481170026,0.421875,168,0.11993870833333335,0.000987298227452349,-7.671653556763641e-07,34.78533333333335,0.012310790208412106,-2.0138894351921695e-06,55.08266666666666,0.14534862304893784,0.480000000000004,-2.4236117685578926e-05
S033,8618.0,8647.984375,N2,0.027973958333333344,5.3210697457283125,-10.74,11.91,22.65,1.06,103.58357021000877,1109.375,1093.2047526041667,0.04564354645876384,0.22071291921483285,0.49727992759500045,63.94122573075158,0.36495714233411214,64.79197481170026,0.440625,166,0.11953313333333332,0.0009687712056460406,-1.0500740695730487e-07,34.79933333333334,0.011234866364236283,3.888889943818385e-06,54.998666666666665,0.13504896231449598,0.44999999999999574,0.00011201391927460833
S033,8648.0,8677.984375,N2,-0.01973958333333332,5.6525126911710535,-12.18,13.22,25.4,1.34,112.1492117927349,1062.5,1064.9169921875,0.03225804701500421,0.21630328100840263,0.4993746088859545,63.95754713184474,0.360668191731552,64.79197481170026,0.46041666666666664,177,0.119116975,0.0011027855523060666,7.200768012361108e-07,34.78666666666666,0.015563490039904392,1.3194448023664137e-06,55.785999999999994,0.4574538228061933,1.3400000000000034,0.0007963196604599778
S033,8678.0,8707.984375,N2,-0.005526041666666656,6.182245339002124,-39.45,14.74,54.190000000000005,1.315,79.73836592648773,1093.75,1072.8597005208333,0.07894706383956841,0.24576270171764378,0.5014562127776794,63.95802255429339,0.36299808700073743,64.59102104782058,0.459375,178,0.12074995833333335,0.0010740654805910215,1.7622422315110212e-07,34.80533333333334,0.013349989596334004,6.180557232138788e-06,56.20399999999999,0.1664451861725056,0.5300000000000011,-0.00012798614582957567
S033,8708.0,8737.984375,N2,0.0009791666666666865,5.142875926097444,-11.08,11.63,22.71,1.41,108.73078010766822,1078.125,1072.9085286458333,0.04564354645876384,0.20915463112783858,0.49817265908908415,63.939971698490474,0.36488929312743457,64.85368146836385,0.4427083333333333,173,0.12068590000000001,0.0008864750363095395,-9.507424454053867e-08,34.79066666666667,0.018961950204436598,-2.812500762939564e-05,55.44733333333333,0.608544346964313,1.8299999999999983,-0.0010568752866957699
S033,8738.0,8767.984375,N2,-0.0764010416666667,5.210216497780962,-10.63,11.09,21.72,1.225,86.98110635387773,1046.875,1082.7718098958333,0.0,0.1880893515504444,0.49738792532980625,63.93763427487282,0.3605065870097411,64.33506042586733,0.4395833333333333,173,0.12070725,0.0009391573550263023,3.0301440511458424e-07,34.764,0.01171893055416541,-1.0347225029087477e-05,55.25866666666666,0.20678061374853848,0.75,-0.00030590286075923964
S033,8768.0,8797.984375,N2,0.043770833333333314,8.125901683914796,-84.15,38.47,122.62,1.73,55.9132397052076,1109.375,1108.5123697916667,0.1640947388959601,0.23037324410013899,0.5033643323097762,63.94201858449867,0.3729513010588668,64.85368146836385,0.44375,181,0.12095277500000004,0.0008399400421309851,8.423244472451268e-08,34.745333333333335,0.009910712498213887,3.819445480535937e-06,55.57166666666667,0.2932357792327228,1.0,0.00037434037932410427
S033,8798.0,8827.984375,N2,-0.003765625000000017,5.476424494791441,-13.16,11.92,25.08,1.415,67.83979125528589,1078.125,1074.4791666666667,0.04564354645876384,0.1881470317479273,0.49997287252798917,63.96624653103616,0.36161175871323664,64.59102104782058,0.4791666666666667,177,0.12085670000000001,0.0010318921261449766,-5.782293235214096e-07,34.748000000000005,0.011944315244780391,-1.4791670679165741e-05,54.93933333333333,0.08891694001832413,0.38000000000000256,9.027780226735544e-07
S033,8828.0,8857.984375,N2,0.006458333333333318,5.699825569181677,-11.63,10.5,22.130000000000003,1.605,78.82283652051022,1078.125,1072.900390625,0.0,0.24179010855951535,0.49986868935473666,63.950042172091386,0.36574971551731034,64.79197481170026,0.45729166666666665,189,0.12105952500000002,0.00094947509149793,-2.8494473875454065e-07,34.754,0.014047538337139181,1.7222226894052956e-05,55.211000000000006,0.1639989837366887,0.5799999999999983,0.00027385424095438386
S033,8858.0,8887.984375,N2,-0.009635416666666697,5.232635437050722,-12.66,12.24,24.9,1.22,101.01129134276346,1109.375,1109.2447916666667,0.07905694150420949,0.32667669786894127,0.5039384814196626,63.97282443523456,0.3588529578038369,64.59102104782058,0.4625,160,0.12089940000000002,0.000941338908151576,-6.115887075707259e-08,34.76533333333334,0.013349989596334632,-6.875001864964219e-06,56.187,0.3304254832787567,1.1000000000000014,0.0002839236881303405
S033,8888.0,8917.984375,N2,0.03893229166666669,4.949910547971102,-11.94,14.84,26.78,-0.19,252.4784353330464,703.125,702.4983723958334,0.0,0.23002679493678316,0.4717715118306743,63.86772108934068,0.34555923880449396,64.33506042586733,0.33229166666666665,171,0.11970390833333333,0.001004836147470762,-7.877534689001354e-07,34.71433333333333,0.03451408730101776,-5.670140427013027e-05,55.178999999999995,0.29623582947824956,1.0900000000000034,-0.00046718762673275384
S033,8918.0,8947.984375,N2,-0.04709375,5.455940196584906,-12.04,18.24,30.279999999999998,-0.28,21.88875129444533,1078.125,1073.9501953125,0.09090593428863095,0.2611323499045391,0.47530029798422063,63.8863445010332,0.3454870407216741,64.79197481170026,0.3385416666666667,164,0.11935166666666666,0.0008794423833063486,-3.1311640438271345e-08,34.66233333333332,0.009551032521263665,-2.9513896895048825e-06,54.90233333333334,0.10461622988597628,0.3299999999999983,-0.00015475698642496236
S033,8948.0,8977.984375,N2,0.03635416666666669,5.250996169337711,-11.06,13.83,24.89,0.03,113.84660997642763,1125.0,1153.5074869791667,0.09668440031302304,0.24451447071469795,0.4856937692620732,63.906831679034056,0.3493895833374446,64.79197481170026,0.375,157,0.11978923333333331,0.0008739723082315308,3.051962633453404e-07,34.68266666666667,0.017499206331209768,1.3125003560386317e-05,55.22866666666667,0.2065063894626243,0.740000000000002,-1.0555558418933906e-05
S033,8978.0,9007.984375,N2,-0.01060416666666663,5.836602281934468,-11.56,13.08,24.64,0.55,70.80178960907895,1078.125,1071.1100260416667,0.0,0.21343747458109497,0.49808225977241943,63.94773734333935,0.36143971459073265,64.33506042586733,0.44895833333333335,178,0.12004543333333334,0.0010022398892259032,-2.9683818816139963e-07,34.687999999999995,0.018511257835887248,7.430557571223103e-06,54.78966666666667,0.3318682804299857,0.9299999999999997,0.0004204515029436588
S033,9008.0,9037.984375,N2,-0.02340104166666664,5.091679082663424,-11.82,11.2,23.02,0.75,58.77609194335229,1062.5,1086.4013671875,0.03225804701500421,0.19363796043705436,0.4995212551783959,63.957499478571094,0.36333242159270185,64.85368146836385,0.4666666666666667,170,0.12005613333333334,0.0010259511597645462,-8.21942497271725e-07,34.733666666666664,0.019058389811897582,2.302083957813589e-05,55.19633333333333,0.11594491029028418,0.37999999999999545,-6.107640545692332e-05
S033,9038.0,9067.984375,N2,-0.0050416666666666925,5.404580445319558,-11.34,11.95,23.29,1.05,101.78917132960052,1156.25,1127.4576822916667,0.06441510347391795,0.19336880062604606,0.4999826385874701,63.97238304113225,0.36634415329952214,64.85368146836385,0.004166666666666667,3,0.12064320000000002,0.0008688164708383463,-7.116668597186517e-08,34.727333333333334,0.013399834161493858,-1.0555558418933142e-05,55.30833333333333,0.34448109124046633,0.9200000000000017,-0.0005101737495045984
S033,9068.0,9097.984375,N2,-0.036812500000000005,5.585680058403251,-11.07,11.08,22.15,1.335,105.75555650568735,1093.75,1091.5934244791667,0.032258047015004204,0.20766559657295183,0.4976986970603355,63.99599777825563,0.36340064965492075,64.33506042586733,0.0,0,0.12055780833333335,0.0009490309381665172,-3.497090792396584e-07,34.73033333333333,0.018345450541089145,2.274306172500502e-05,54.683,0.06807593799084526,0.2700000000000031,-6.600696234997841e-05
S033,9098.0,9127.984375,N2,0.08840104166666665,6.161844936076282,-15.45,12.07,27.52,1.63,103.3128815454339,1046.875,1068.3024088541667,0.0,0.23551574242618165,0.49228421668788036,64.01633679478499,0.355431723391847,64.33506042586733,0.0,0,0.12069657500000001,0.0008431898625902709,-4.920509147273526e-08,34.758666666666656,0.01231079020841485,6.4583350852698585e-06,54.805,0.2079222611137791,0.7299999999999969,0.0001601042100977128
S033,9128.0,9157.984375,N2,-0.024526041666666706,5.6154413770154195,-13.26,11.09,24.35,1.42,87.46133585866552,1031.25,1044.921875,0.032258047015004204,0.24829278192399304,0.4956746507286812,63.99584092524961,0.3580189987719707,64.85368146836385,0.0010416666666666667,1,0.12112356666666667,0.001188647983588451,1.1900971110289476e-06,34.78666666666667,0.012736648783027736,-5.3472236727488065e-06,55.38533333333333,0.18939787632271765,0.6300000000000026,0.0002646528495694572
S033,9158.0,9187.984375,N2,-0.018770833333333316,4.9551926519880105,-12.81,14.45,27.259999999999998,0.975,136.42231220703533,1023.4375,1028.759765625,0.03225804701500421,0.21750389124871608,0.49553562491061676,64.0026162410562,0.35723143771335725,64.33506042586733,0.0,0,0.12158259166666667,0.0009885541588251809,-4.992729218947823e-07,34.73933333333333,0.02619584360585168,-3.888889943817926e-05,55.519666666666666,0.18365698704075714,0.6499999999999986,0.00010579863981082797
S033,9188.0,9217.984375,N2,0.024421875000000023,5.1020942472124275,-10.74,12.17,22.91,1.21,121.70974716650389,1031.25,1022.7457682291666,0.0,0.2162430755153407,0.48858053327982676,64.02797189932751,0.36093322410417095,64.33506042586733,0.0,0,0.12133706666666667,0.0009852612659707208,-1.4650090779647043e-07,34.69533333333333,0.021406125810670328,-2.951389689504675e-05,56.57733333333333,0.28300687074502046,0.990000000000002,0.0003239584212126802
S033,9218.0,9247.984375,N2,-0.041552083333333344,5.989022813256266,-13.66,14.6,28.259999999999998,1.225,77.78999728383481,1109.375,1096.240234375,0.04564354645876384,0.26167197446845963,0.48101883878273305,64.04122844090334,0.3464363049218381,64.33506042586733,0.0,0,0.12074995000000001,0.0009947817084667368,1.5456514609514542e-07,34.72266666666666,0.031084115271666882,5.277779209467123e-05,57.19966666666666,0.25358080018452167,0.8100000000000023,0.00021260422433925401
S033,9248.0,9277.984375,N2,0.07325000000000002,5.586393585459824,-11.76,11.47,23.23,1.31,99.2502704790702,1000.0,1020.2962239583334,0.05589199343873463,0.31290078466131505,0.47540986520112893,64.04543849415558,0.3499044031412648,64.41273166075166,0.0010416666666666667,1,0.121593275,0.0010234090821245462,1.4177738220957073e-08,34.80466666666667,0.013597385369580958,5.277779209466657e-06,56.34466666666666,0.23525494445152234,0.720000000000006,-0.000297569525165344
S033,9278.0,9307.984375,N2,-0.03497916666666667,4.9589902575590905,-11.22,11.13,22.35,1.13,116.42735067423722,1171.875,1152.2542317708333,0.06451609403000841,0.29871687403515285,0.46393241957267395,64.07009444655283,0.3370795303820698,64.33506042586733,0.0,0,0.12163597500000002,0.0009566491647281176,9.034833180022e-08,34.78466666666667,0.017074997966487402,-1.7777782600308535e-05,55.87066666666667,0.38310079903626154,1.029999999999994,-0.0006518751768324583
S033,9308.0,9337.984375,N2,-0.0024010416666666663,4.987199731520911,-10.63,9.45,20.08,0.86,105.43414988682468,1109.375,1114.2171223958333,0.0,0.26339134382131846,0.44807531105272913,64.09952392437128,0.3322764947388228,64.33506042586733,0.0,0,0.12184944166666668,0.0009684059479012721,3.649356458701305e-07,34.74666666666667,0.01639783183500102,-2.3819450905887755e-05,55.086999999999996,0.29770399168749195,0.9899999999999949,-0.00045677095724038435
S033,9338.0,9367.984375,N2,-0.01317187499999999,4.719487910475633,-9.94,12.38,22.32,0.89,102.92258096347331,1125.0,1142.2119140625,0.03225804701500421,0.3030498188554702,0.4661723107005487,64.06920857251559,0.3416448811712411,65.06919393998976,0.0010416666666666667,1,0.12213767500000001,0.0008894960760874695,-2.1569428594137598e-07,34.730000000000004,0.016329931618554464,1.555555977527154e-05,54.22466666666666,0.26572834917553667,1.0,0.0003808334366410162
S033,9368.0,9397.984375,N2,0.05441666666666667,4.836263491121587,-10.46,11.51,21.97,0.985,98.16585749792982,1125.0,1151.5706380208333,0.045595976308831845,0.2792579919029475,0.46137132362543826,64.08156890335161,0.33915613661317134,64.79197481170026,0.0010416666666666667,1,0.1217107,0.0009197861490585762,-3.10242271658603e-07,34.714999999999996,0.015864005379053324,-1.6840282345995845e-05,55.00266666666666,0.2787703156523102,0.8500000000000014,0.000350833428502991
S033,9398.0,9427.984375,N2,-0.038218749999999996,4.520486913078624,-9.8,10.68,20.48,0.545,64.25946152054983,1125.0,1097.7213541666667,0.11625205344661899,0.2628449288025589,0.4702049180203835,64.06597228342676,0.34783192185949335,64.85368146836385,0.003125,3,0.12151855000000002,0.0009234954777907716,1.1564586470428186e-07,34.70333333333333,0.016996731711976052,-4.375001186794674e-06,55.06033333333333,0.18905877980729313,0.6500000000000057,-0.0002614931264901065
S033,9428.0,9457.984375,N2,0.01042187499999999,4.2103208358474875,-9.88,9.13,19.01,0.47,87.80677997003993,1109.375,1128.3040364583333,0.08507936450096985,0.2619020139872077,0.4433096406576333,64.1106335133825,0.3285125762565483,64.33506042586733,0.0,0,0.12161462500000002,0.0010639748122214512,-6.89109778946882e-07,34.67066666666666,0.019482185594937584,-2.7569451923138214e-05,54.306000000000004,0.11125346436553439,0.30999999999999517,-0.00016111115481530822
S033,9458.0,9487.984375,N3,0.038828125000000005,4.5922664306918195,-9.62,10.96,20.58,0.515,75.76449494119966,1015.625,1039.990234375,0.05589199343873463,0.2574223689613369,0.4627521366029071,64.08635445535924,0.3424874042345729,64.6297145282261,0.0010416666666666667,1,0.12136910833333334,0.001029209614184866,4.998462727447592e-07,34.64533333333332,0.011756794725697304,8.958335763436024e-06,54.147000000000006,0.14760645875660916,0.5499999999999972,0.00021197922416971087
S033,9488.0,9517.984375,N2,-0.043510416666666656,3.688731386191576,-15.28,18.73,34.01,0.14,49.1923912553748,1125.0,1098.046875,0.1289480677120315,0.27002282568125396,0.49738792532980625,63.98338239395164,0.36615447017278924,64.85368146836385,0.004166666666666667,2,0.12167867500000001,0.0009281112914812563,-1.6707491511363825e-07,34.632666666666665,0.015902480589167947,-1.8680560622981307e-05,55.17733333333334,0.9905854610055386,3.25,0.0013478475878492804
S033,9518.0,9547.984375,N2,-0.019385416666666672,5.58304457313576,-11.46,13.33,24.79,0.555,96.04093621694035,1093.75,1109.0983072916667,0.032258047015004204,0.2313813440813431,0.49960813637345375,63.934597397425286,0.3630963542567527,64.85368146836385,0.4375,193,0.12110222500000001,0.001003166050250408,4.197722492871777e-08,34.59266666666667,0.014360439485691398,-3.333334237557601e-06,58.14366666666667,0.1927084729729228,0.759999999999998,0.0001301042019596912
S033,9548.0,9577.984375,N2,0.0045989583333333325,5.1575725319668475,-12.17,11.61,23.78,0.61,83.86221544957246,1140.625,1111.5804036458333,0.14021545301388463,0.30362215816793664,0.5054863925523173,63.96083329085001,0.3726769021931773,65.52098900352466,0.46145833333333336,188,0.12119830000000002,0.000904796778287812,-3.0245841538043076e-07,34.64533333333333,0.02077391526784234,3.2013897573211584e-05,57.024,0.8010892584475213,2.700000000000003,-0.0010834030716696697
S033,9578.0,9607.984375,N2,0.027114583333333334,4.794543894213226,-10.27,10.93,21.2,0.855,85.21885762590415,1171.875,1159.6761067708333,0.09107288747664329,0.32153433968586037,0.4948070173057371,64.00864492082134,0.3559617023609398,64.85368146836385,0.005208333333333333,4,0.12101683333333337,0.0009354207906367904,2.1488460690229103e-07,34.673333333333325,0.013743685418727053,1.2291670000997226e-05,54.163333333333334,0.2374494098165374,0.9499999999999957,-0.0003215278649977924
S033,9608.0,9637.984375,N2,0.01356770833333331,4.537280151997146,-12.26,12.12,24.38,0.635,87.09904334319957,1140.625,1108.2275390625,0.15723301886761007,0.27819326565457253,0.5038738819276991,63.95821949807915,0.37124830261817016,64.85368146836385,0.45416666666666666,192,0.12117695,0.0008933897231891595,-1.6512895104409508e-07,34.67466666666666,0.01334998959633532,2.36111175160396e-06,53.815666666666665,0.4986828205939678,1.2999999999999972,-0.000746701591444659
S033,9638.0,9667.984375,N1,0.12956770833333303,99.5297698847069,-754.16,503.18,1257.34,0.18,129.19389760708572,1109.375,1055.7047526041667,34.61921944264065,10.741976778236241,9.53934628809368,63.36989465062955,5.926212418972167,121.31364309095659,0.051041666666666666,15,0.11246802500000001,0.009929982420647833,-8.865859609879424e-07,34.618666666666655,0.05414384134465728,-8.548613430070698e-05,55.57366666666667,2.3054753426474885,7.3799999999999955,0.003992883027583286
S033,9668.0,9697.984375,N2,-0.1251510416666666,28.79440000312016,-68.26,54.97,123.23,3.225,151.50703363454375,1187.5,1112.4918619791667,0.7041512572278456,0.5772290354573304,0.6286007388548702,62.59632047107861,0.47173984570417604,65.49045732013177,0.14270833333333333,87,0.11765499166666667,0.004311305997985286,4.000519531390933e-06,34.47166666666667,0.032360813064912924,-5.322918110600634e-05,61.934,0.44366353617728493,1.75,-0.00027333340747976527
S033,9698.0,9727.984375,N2,0.19260416666666652,37.65701136145365,-147.3,206.37,353.67,4.415,90.28987379630972,1171.875,1184.6028645833333,0.9381103337368631,0.6130728259599796,0.7826653845460821,62.407920112103156,0.5585015201568057,66.61080993352356,0.12708333333333333,68,0.12280983333333333,0.0035104304492311043,4.11694122095845e-06,34.35533333333333,0.034032664048266575,-5.500001491970829e-05,58.232333333333344,2.98001418713998,9.310000000000002,-0.005290938935259044
S033,9728.0,9757.984375,N2,0.12970833333333348,52.384173986901146,-312.5,277.88,590.38,5.96,85.3785666339321,1234.375,1203.0517578125,5.276635064524234,2.4885830888139044,11.188634670500711,62.3276651256184,1.159055645243893,74.35724578008521,0.04479166666666667,12,0.11715331666666666,0.010831892329277263,-1.521160612294003e-05,34.26133333333333,0.029970355723985775,-5.0069458026655284e-05,50.90233333333334,0.3449703690979201,1.5999999999999943,-0.00025399312445559957
S033,9758.0,9787.984375,N1,-0.35493229166666673,30.09228354328701,-65.44,57.52,122.96000000000001,4.605,107.27296808256914,1203.125,1177.392578125,0.6918392104062587,0.367421984822024,0.5094761743420612,62.20430147812775,0.5958908889440356,67.09694478886502,0.259375,134,0.10052538333333333,0.0013017136345559632,1.6710251928779313e-06,34.20933333333333,0.017688665548561515,-2.3125006273058207e-05,52.63533333333333,1.1437212170027367,3.549999999999997,0.0020167366581859405
S033,9788.0,9817.984375,N2,-0.09766145833333348,31.489340317729845,-70.26,59.95,130.21,5.105,123.4402402742647,1171.875,1130.6884765625,2.041538048669842,2.3981972033986048,4.722254378464862,62.291122258736756,1.9209492654527052,76.8505042273634,0.035416666666666666,10,0.10162456666666667,0.004953696119621748,-6.696559976280402e-07,34.15099999999999,0.016999999999998235,-2.4756951160194303e-05,54.558333333333344,0.2696427677914285,0.9500000000000028,0.0004456598431151917
S033,9818.0,9847.984375,N1,1.0219375000000002,64.69819386402473,-396.15,236.74,632.89,5.52,119.91675770155027,1265.625,1186.8977864583333,5.338451218745991,3.106256113061278,16.20672118026748,62.8536656713668,2.9309844771644853,82.58934555982388,0.058333333333333334,19,0.11339663333333334,0.006280524400787637,6.68850919284646e-06,34.076333333333345,0.05115227810719303,2.7395840764931798e-05,57.351666666666674,1.1408128193918972,3.5899999999999963,0.0019237852440823686
S033,9848.0,9877.984375,N2,-1.0195416666666668,101.25267091795206,-810.26,687.63,1497.8899999999999,12.065000000000001,60.08157870922334,1250.0,1227.7669270833333,0.5424633564173303,0.20883013681379098,0.45505932916000696,62.57298588227801,0.4102594011539192,64.48255578061404,0.084375,63,0.1188182,0.0012748514854680128,1.455943103283176e-06,34.07466666666667,0.02045048220023874,-2.9652785821613357e-05,57.89399999999999,0.22038753745769454,0.9500000000000028,-0.00025145840154579133
S033,9878.0,9907.984375,N2,0.1538489583333334,53.40095618709403,-124.14,94.75,218.89,12.01,125.0715980518522,1187.5,1204.3701171875,0.4115189828718584,0.08533405557962581,0.23632521950693283,62.6745824213929,0.31266590906760555,63.48228099241551,0.04479166666666667,40,0.12110220833333334,0.0016601264705629782,6.935294850069143e-07,34.03333333333333,0.02211083193570166,-2.4513895538707593e-05,53.14066666666667,2.345767725547912,6.920000000000002,-0.004188195580565208
S033,9908.0,9937.984375,N2,0.25515104166666697,61.947918495415855,-193.72,304.48,498.20000000000005,12.72,105.08809253131368,1125.0,1116.9840494791667,0.42029668753816696,0.4928294424798503,0.32142802028171447,62.59663728542446,0.3347270883505171,65.45991139621256,0.08020833333333334,61,0.12105950833333336,0.0012911928915789036,1.5319980284282856e-06,33.998333333333335,0.013924399049470147,-1.1354169746682219e-05,50.948,0.37944169512587805,1.1000000000000014,0.0006672224032178822
S033,9938.0,9967.984375,N2,-0.08623437499999996,50.595731149570824,-151.19,113.72,264.90999999999997,12.575,136.10755519482188,1156.25,1144.1975911458333,0.3407237369637689,0.39478891819623757,0.20883013681379098,62.582040725802784,0.24077014065340824,64.19501538281614,0.06770833333333333,48,0.1218068,0.001531611654434637,7.374073180900936e-07,33.973666666666674,0.018162843634433608,-2.0937505679661176e-05,52.797333333333334,1.169099178380042,2.8999999999999986,0.002016042213553117
S033,9968.0,9997.984375,N2,-0.48967708333333326,57.840601841215815,-143.55,251.52,395.07000000000005,9.285,120.89721043624287,1078.125,1136.7838541666667,0.26190408549696204,0.499321371059984,0.13238185901860655,62.645295770392046,0.23327631705947297,64.19501538281614,0.028125,20,0.12391979166666665,0.0009638290295814368,-1.269841924327783e-07,33.93266666666666,0.020483055327651035,-2.347222858947293e-05,53.42033333333333,0.4570301473158589,1.3599999999999994,-0.0007646182629715347
S033,9998.0,10027.984375,N2,0.21378125,56.085160021707004,-128.57,195.34,323.90999999999997,7.29,186.22791235407792,1187.5,1103.6051432291667,0.3061578659595224,0.47748686536618185,0.16455695991223085,62.59934377952402,0.22423954372045923,63.56099432828282,0.0375,17,0.12466680833333331,0.0012537067592798122,-3.536133771737739e-08,33.90466666666666,0.013597385369579983,-4.166667796947506e-06,51.942,1.0076983675683913,2.6200000000000045,-0.0017577782546056469
S033,10028.0,10057.984375,N2,0.26456770833333354,49.40255844758741,-117.99,97.69,215.68,11.875,92.7894037796129,1234.375,1243.75,0.10172129679778086,0.3443744328488978,0.07894706383956841,62.5396189154388,0.12999709621741112,63.48228099241551,0.14583333333333334,104,0.12532854166666665,0.0009684469086793271,3.360545616467438e-07,33.879,0.018859126879753368,-1.7534726978819725e-05,49.787000000000006,0.5405685278790594,1.9799999999999969,-0.0008881599631510315
S033,10058.0,10087.984375,N2,0.18893749999999987,44.262527251194776,-113.8,82.93,196.73000000000002,11.3,83.46181501724139,1171.875,1149.8697916666667,0.5325341913253604,0.27281128690706485,0.4764916272436834,62.55058139843053,0.4422669461436418,64.28841264178172,0.20416666666666666,140,0.12572347499999997,0.001050225237449083,2.499241129351416e-08,33.84666666666667,0.020221001184136295,-2.847222994580815e-05,49.26133333333333,0.5355976931325308,1.5,0.0008552085653235032
S033,10088.0,10117.984375,N2,-0.7711510416666665,51.643042376632756,-172.38,97.55,269.93,11.835,81.2574529897525,1156.25,1150.09765625,0.6731576903234981,0.2709855341567557,0.5232070906650848,62.634329323315065,0.5591647507816865,66.58828725834597,0.27291666666666664,167,0.12469884166666666,0.0014874862071956225,-1.2595552461901162e-06,33.818333333333335,0.012671051872497752,-1.979167203549663e-06,50.61433333333333,0.5951900723485077,2.049999999999997,0.0010399655598864902
S033,10118.0,10147.984375,W,1.0611250000000003,54.80217596600864,-208.59,214.58,423.17,12.025,109.90462185157439,1109.375,1091.11328125,5.047912690017694,8.376343175873348,10.240206989739432,62.55534013766492,1.8383199561145984,73.00684899377592,0.03854166666666667,15,0.12024844166666666,0.010750601846560215,-7.088677053135052e-06,33.803333333333335,0.01299572579307907,-5.972223842292138e-06,52.044333333333334,0.3800410796509002,1.5499999999999972,0.000340520925705546
S033,10148.0,10177.984375,W,-0.5280572916666669,108.68261762911062,-1067.72,494.49,1562.21,-0.33999999999999997,38.3326870407687,828.125,823.0794270833334,6.484532795938133,6.451008951555993,11.493548868021454,65.06236852322618,4.583788696544976,114.84772527133482,0.046875,23,0.13757008333333332,0.017373723972608432,-1.4324651889282735e-05,33.86,0.030550504633038048,3.500000949435994e-05,60.654333333333334,4.408521054604241,13.810000000000002,0.007924272982929952
S033,10178.0,10207.984375,W,-0.17704687500000002,8.46351878271105,-42.63,49.9,92.53,-0.435,162.5443176008375,843.75,951.8636067708334,0.42735128789309723,0.4265443753780686,0.45276446384651503,64.9897499044715,0.42830949197488777,66.19667665374146,0.0010416666666666667,1,0.13572365833333333,0.0015104189622741112,2.1591279728537157e-06,33.90066666666666,0.015260697523012099,1.7222226894049626e-05,67.33366666666667,0.4999165485914181,1.8699999999999903,-0.000635173783413028
S033,10208.0,10237.984375,W,0.1078541666666653,184.9195355068308,-1062.59,1026.27,2088.8599999999997,2.075,0.0,1203.125,1203.125,23.095605168117963,17.572342536560747,23.218896061863003,65.32346145918952,5.501852687030367,117.80492349643117,0.08229166666666667,33,0.15298130833333332,0.011907760560376748,1.6612169653908868e-05,33.80633333333333,0.10495978065695213,-0.000147187539927175,64.20566666666667,2.294096312034195,8.100000000000009,0.0021498269720667796
S033,10238.0,10267.984375,W,-0.26541666666666663,120.84484596577984,-380.17,411.06,791.23,8.565,25.288124226028835,1203.125,1195.9147135416667,1.088122427241837,0.3473048512794232,0.6581190315757646,64.8797571741739,0.357107388465214,66.06814663663572,0.165625,93,0.16428354999999997,0.001421907678965131,1.7640447493611013e-06,33.77066666666666,0.013148721948876963,1.3680559266643573e-05,83.03066666666668,8.341216111708304,27.47999999999999,0.01503708741240435
S033,10268.0,10297.984375,W,-0.09460937500000005,81.90389683478077,-233.2,143.19,376.39,18.28,65.79859897699527,1250.0,1212.9475911458333,0.6741692096676389,0.3381873145495292,0.5265478175499986,64.87620467349953,0.37906749029658054,66.76076692189807,0.26145833333333335,152,0.166887825,0.0014107688486690556,2.014852760105464e-06,33.790666666666674,0.013148721948877168,2.291667288320033e-06,102.70700000000001,2.758653234218949,9.150000000000006,-0.0006790626842075417
S033,10298.0,10327.984375,N1,0.1763958333333342,106.99336428571937,-274.99,357.93,632.9200000000001,11.965,91.57706382460768,1093.75,1137.8173828125,0.5645708408827009,0.2935042559553249,0.4679565043148301,64.80514049684426,0.3275772442393143,65.88626564011653,0.24375,136,0.17038835000000002,0.0010639259110326496,1.022093159204952e-06,33.79933333333334,0.013399834161495037,-1.3611114803362731e-05,82.72600000000001,7.956920928768029,26.659999999999997,-0.014344865002404785
S033,10328.0,10357.984375,W,-0.8435572916666675,168.6181726141376,-739.34,1005.78,1745.12,4.73,0.0,1328.125,1328.125,3.4655140060875365,2.4509757038864475,2.780773991725246,64.96090648032364,0.967386989770918,73.40980860893181,0.027083333333333334,11,0.16806188333333336,0.0026837198412630304,-2.7778488438174945e-06,33.78333333333333,0.013984117975601045,-6.9444463282466665e-06,59.781,4.403230897117859,14.120000000000005,-0.007488578420295797
S033,10358.0,10387.984375,N2,1.387578125,81.52866209077398,-225.43,236.26,461.69,9.075,43.602027122471895,1328.125,1330.2897135416667,0.6815525576864112,0.3480538651639363,0.5008283069631303,65.02335263631502,0.38333440591267764,66.36264009214823,0.08854166666666667,64,0.16880885833333334,0.0014057489717574788,1.5521564540354898e-06,33.77733333333333,0.010934146311236233,-1.1805558758011779e-06,55.58933333333333,0.37385320945823397,1.1000000000000014,-0.0004450695651772907
S033,10388.0,10417.984375,N2,-0.8947916666666667,68.70495545308769,-336.74,182.44,519.1800000000001,3.55,71.69021542990032,1203.125,1207.6416015625,0.5839199059778851,0.4643497170476388,0.4842024782366934,64.88827696338781,0.3805864632509256,66.19667665374146,0.09583333333333334,65,0.1714876416666667,0.001316445516000272,1.466310510609405e-06,33.776666666666664,0.014907119849997855,-7.638890961071012e-06,56.047333333333334,0.44559273881975325,1.6199999999999974,-0.0005195834742793712
S033,10418.0,10447.984375,N2,-0.25947395833333303,67.81049299091696,-214.55,227.85,442.4,1.01,17.131150476951454,1312.5,1305.6966145833333,0.6224810349632259,0.49053431575227796,0.41824700304432016,65.11660186577961,0.3736573120925048,66.24198064671678,0.315625,147,0.1738141,0.001135866316958122,7.772567212610492e-07,33.75933333333333,0.016918103387267385,-1.4305559436189173e-05,55.046,0.24821496060202902,1.0300000000000011,-9.805558215483441e-05
S033,10448.0,10477.984375,N2,0.6492968749999996,84.67238393616125,-698.33,441.18,1139.51,7.265000000000001,68.42313136628367,1265.625,1233.4716796875,0.6171028862533557,0.36457738090378927,0.3406090720027221,65.08956688716913,0.3584560978305185,66.71581521648372,0.3260416666666667,145,0.1752338083333333,0.0010545141479676298,6.941214990563983e-07,33.74333333333333,0.014907119850000398,1.0972225198629848e-05,52.08533333333333,0.9319217897561051,3.1499999999999986,-0.0015681948698445284
S033,10478.0,10507.984375,N2,0.6634583333333333,76.78102240176777,-204.59,555.71,760.3000000000001,5.045,116.0601107117979,1437.5,1348.6653645833333,0.5246516287949768,0.14311453746329664,0.25124473114984036,65.25165262592135,0.3274847366817478,66.10597552415364,0.0125,11,0.17640789166666662,0.0012316882641036071,1.190917206737524e-06,33.727333333333334,0.01611072796479222,-1.7222226894049402e-05,51.998000000000005,0.3200354147069762,1.0499999999999972,-0.0003149306409859596
S033,10508.0,10537.984375,N2,-0.7597708333333334,50.015809592750934,-130.57,199.58,330.15,4.445,107.49307018684398,1078.125,1095.556640625,0.6150236769945437,0.3926351059048196,0.33287566236843186,65.22764525833179,0.34478600110934515,66.71581521648372,0.013541666666666667,9,0.17881975,0.0011815178955479181,1.2470975605190776e-06,33.702,0.018511257835886353,-1.4722226215881733e-05,52.409,0.2516657836629103,0.7999999999999972,0.00039697927435418737
S033,10538.0,10567.984375,N2,0.16392187500000024,62.86053742780638,-153.45,242.75,396.2,6.38,154.1479647092459,1015.625,1095.3531901041667,0.5286814951025702,0.3210226714043037,0.4553775429214996,65.17184802890924,0.36086631424769194,66.61080993352356,0.017708333333333333,16,0.180121775,0.0014861974378846822,1.8852594089787856e-06,33.68033333333333,0.01852625764212191,-1.6145837713173524e-05,56.22999999999999,2.515229611784976,6.850000000000001,0.004411876196798014
S033,10568.0,10597.984375,N2,0.1320885416666665,69.01619572579258,-259.48,527.84,787.32,7.609999999999999,97.75645358263861,1218.75,1222.6888020833333,0.5648523344399156,0.30753697835472654,0.5410964546768801,65.13732337358321,0.37212729710597997,67.7421582177598,0.014583333333333334,10,0.18307797500000003,0.001082494699467396,1.1769588696177527e-06,33.64666666666666,0.01105541596784992,-6.944446328245358e-06,57.868,0.5109885843473736,1.7299999999999969,-0.0009072224683220662
S033,10598.0,10627.984375,N2,-0.008197916666666789,50.22314640766575,-126.13,112.87,239.0,3.705,72.74476223574464,1171.875,1144.6370442708333,0.3958114029012639,0.3210226714043037,0.37077334486703456,64.98196780924506,0.2906624128432777,66.0,0.20625,133,0.18492459999999997,0.0012183587690003334,1.009133954300663e-06,33.628,0.017962924780409274,-2.3333339662905595e-05,53.464000000000006,2.2062888901199376,6.280000000000001,-0.003931806622126362
S033,10628.0,10657.984375,N2,-0.5616510416666668,49.135286283479395,-147.64,151.21,298.85,4.88,47.73994697700322,1234.375,1240.6575520833333,0.47696960070847283,0.44492581895749767,0.29776183330809874,64.98886922496104,0.2795118260695197,66.0,0.23229166666666667,128,0.18696291666666662,0.0009777926465883292,1.2897355929187076e-07,33.604000000000006,0.0147422295916634,-1.2152781074430259e-05,51.955000000000005,0.8109243696753318,2.450000000000003,0.0014457990033091921
S033,10658.0,10687.984375,W,-1.871359375,79.00141162291035,-207.48,409.2,616.68,-1.7149999999999999,112.90503691857964,1281.25,1212.7278645833333,12.731986824461604,4.266420357270314,3.5621704282252167,65.00167175791094,0.6872059444862024,71.57513534740957,0.04479166666666667,19,0.18562884166666666,0.006140522935108799,-5.899578206265789e-06,33.57333333333334,0.018678567634830643,-2.4236117685581132e-05,54.717666666666666,0.5031148532448186,2.3800000000000026,0.0007794099336506976
S033,10688.0,10717.984375,N1,2.7630624999999993,218.115326315089,-1022.43,1007.91,2030.34,3.37,0.0,1312.5,1312.5,9.310151584482481,5.199833063559723,4.018996639010165,65.10151372897312,1.646711934833911,81.60882305241266,0.04583333333333333,12,0.19365479166666671,0.005001038620286513,3.948478718662847e-06,33.504,0.021385353243127164,-2.194445039725752e-05,59.20033333333333,1.776212230812773,5.420000000000002,0.00311448001152344
S033,10718.0,10747.984375,W,0.7080052083333338,111.95394504935749,-396.62,565.72,962.34,5.635,0.0,1312.5,1312.5,1.4110781314496923,0.605096267593476,1.1278893259523393,64.93407099254698,0.42667239759520953,66.6783323126786,0.11770833333333333,76,0.19816917499999995,0.0014197011050599085,1.8937871890698722e-06,33.48300000000001,0.014410644214145656,-1.059028065057535e-05,61.845666666666666,1.0352348633147084,3.3299999999999983,0.0017642018674592743
S033,10748.0,10777.984375,W,-1.323630208333331,207.55133823772252,-927.53,633.81,1561.34,6.465,0.0,1312.5,1312.5,29.163989162816684,17.65728868626211,16.408647443878486,65.47719320274794,7.762737078935856,145.2205219657332,0.08229166666666667,34,0.17929994999999996,0.021453402139229572,1.6643767969772126e-05,33.47466666666667,0.016878651868230243,-2.0833338984716805e-07,61.556,0.8147539505887652,2.759999999999998,0.00021750005900066682
S033,10778.0,10807.984375,N2,0.35981770833333243,110.43886800378006,-364.43,401.03,765.46,9.035,0.0,1312.5,1312.5,0.6041082945939595,0.18055422008053115,0.4955958377296969,64.71894436397248,0.3650211131378196,66.15134163416491,0.1625,104,0.186802875,0.000982103512556079,2.770306741077126e-07,33.479333333333344,0.012892719737209863,1.479167067916492e-05,63.492666666666665,0.6259069863450611,1.990000000000002,-0.0009822919331304082
S033,10808.0,10837.984375,N2,-0.12167187499999994,93.18011155019572,-220.9,361.28,582.18,21.555,65.50446142528243,1156.25,1183.6181640625,0.49025994911713255,0.19741988090108856,0.29776183330809874,64.63590861727873,0.2820027519877545,65.7419196555744,0.2635416666666667,129,0.18842510833333329,0.0009721607274162777,6.701688015865852e-07,33.50033333333333,0.015380362660079262,1.2118058842789382e-05,61.276666666666664,1.8182635183664175,5.550000000000004,-0.0031888897539305966
S033,10838.0,10867.984375,N1,-0.21621874999999935,119.98186359375867,-330.75,516.81,847.56,12.55,0.0,1140.625,1140.625,0.9001928805662829,0.3437878767011231,0.492009723184749,64.71685832886413,0.3097682602583967,65.7419196555744,0.06979166666666667,49,0.18997255833333332,0.0013464820013392546,1.4890101695448635e-06,33.529333333333334,0.022793761329704173,2.8194452092677176e-05,54.467333333333336,1.3560947197334294,4.479999999999997,-0.0023705561986100796
S033,10868.0,10897.984375,N2,-1.8312864583333335,143.11789181279457,-485.65,568.74,1054.3899999999999,5.07,0.0,1140.625,1140.625,1.2084945115204289,0.5435214637870543,0.5830914677151623,64.68645318565115,0.46127460429113437,66.64082832618455,0.146875,91,0.1928435833333334,0.0012665778866913658,1.4719209722007895e-06,33.539333333333325,0.011234866364233556,8.472224520458599e-06,54.82933333333334,0.7381731203149812,2.479999999999997,0.0009718058191747559
S033,10898.0,10927.984375,N2,2.343348958333333,135.50286856851,-408.36,496.35,904.71,30.305,0.0,1140.625,1140.625,0.5037780440911784,0.48042294553572507,0.2716154572133593,64.57443776441416,0.3280433047716441,65.7419196555744,0.2625,148,0.19496750833333334,0.0014002599817881025,1.6773973734259347e-06,33.56666666666667,0.013743685418727053,1.7986115990159477e-05,55.24633333333333,0.4085787017889645,1.1700000000000017,0.0003885764942970099
S033,10928.0,10957.984375,N2,0.07486979166666725,115.35296562789235,-243.82,558.83,802.6500000000001,7.85,86.67870094120289,1140.625,1226.0823567708333,0.5777551369428824,0.48302792074808903,0.3066890277173643,64.61791831097197,0.32699361342798033,65.7419196555744,0.08020833333333334,61,0.19652557499999998,0.0010036729020826366,6.380967442753713e-07,33.598000000000006,0.014236104336040846,5.972223842292309e-06,52.89300000000001,1.0344310835752506,3.1199999999999974,-0.0018548963365061682
S033,10958.0,10987.984375,N2,-0.979651041666667,130.13413886189184,-395.14,684.27,1079.4099999999999,0.44,0.0,1312.5,1312.5,0.6297596543303026,0.5021557261088326,0.30529009143854563,64.58896462198888,0.3179083612259416,65.7419196555744,0.26875,162,0.19843600833333325,0.0010494382504927222,6.583419754616906e-07,33.60866666666667,0.011469767022722982,1.2500003390838965e-06,51.13433333333334,0.3247941228258634,0.9399999999999977,0.0001212847551228174
S033,10988.0,11017.984375,N2,1.179817708333334,98.38076149487011,-210.97,218.93,429.9,16.509999999999998,0.0,1312.5,1312.5,0.5168976298284045,0.47495887979908324,0.2030341677252597,64.53786811198475,0.29936804560736885,65.7419196555744,0.21875,146,0.19954588333333328,0.0011002512454233182,3.5206389758677873e-07,33.60200000000001,0.012220201853214228,-5.000001356336277e-06,51.937000000000005,0.2504948435929714,0.730000000000004,0.0003240625879076037
S033,11018.0,11047.984375,N2,0.007750000000000531,104.49038182082836,-218.6,250.22,468.82,11.620000000000001,0.0,1312.5,1312.5,0.5126767564432995,0.45500567571246353,0.19741988090108856,64.53543368746286,0.2881095354564414,65.7419196555744,0.19583333333333333,144,0.200538325,0.0010533766037723676,8.110451418850775e-07,33.60533333333334,0.012310790208412106,4.6527790399243624e-06,52.337,0.09723339618327333,0.28000000000000114,2.3784728674242935e-05
S033,11048.0,11077.984375,N2,-1.0210885416666675,103.01363810049858,-228.22,206.68,434.9,15.94,0.0,1312.5,1312.5,0.49926595423236664,0.44492581895749767,0.21885909977781495,64.52684555043393,0.288233083540184,65.7419196555744,0.17604166666666668,120,0.202705225,0.0010453360581052426,7.780360183474462e-07,33.61533333333334,0.01359738536958112,1.8055560453442122e-06,51.940666666666665,0.37241494181744234,1.240000000000002,-0.0004027778870382723
S033,11078.0,11107.984375,N2,0.36086458333333304,108.4234791905025,-247.86,255.87,503.73,16.490000000000002,4.238776252775528,1312.5,1311.9140625,0.5109860769466555,0.382617935250035,0.18943160136899606,64.51415491577812,0.27549743431838003,65.7419196555744,0.15,102,0.20404988333333338,0.0011708600982705919,1.1029759936458295e-06,33.61800000000001,0.015143755588800843,5.416668136032118e-06,55.241333333333344,2.640411247430133,6.189999999999998,0.004381181744027163
S033,11108.0,11137.984375,N2,0.7358645833333333,102.9040683015132,-224.93,238.14,463.07,16.665,0.0,1281.25,1281.25,0.4472317922975363,0.3570714214271425,0.16697562509240682,64.53268262590213,0.2490778417674363,65.7419196555744,0.15,100,0.20573604166666667,0.0009892989638782296,3.5834536630462137e-07,33.609333333333346,0.014126413400277675,-7.013890791527904e-06,58.382666666666665,0.52101780733057,1.4199999999999946,0.0008556946765664804
S033,11138.0,11167.984375,N2,0.13653645833333308,107.948911845265,-242.06,230.02,472.08000000000004,12.445,0.0,1281.25,1281.25,0.46881481033441,0.32834152908552733,0.1822767851068503,64.51414133921699,0.23836372109573464,65.7419196555744,0.125,82,0.20701685,0.0009752991989640924,4.4889248288099023e-07,33.626,0.0130639452948437,3.8888899438176695e-06,55.21166666666667,2.8344606580833362,6.75,-0.004835383256126099
S033,11168.0,11197.984375,N2,0.7798802083333325,122.24397379760443,-419.23,414.13,833.36,14.585,0.0,1281.25,1281.25,0.5422712971587398,0.4150685498103496,0.24942425021882342,64.51644320016754,0.272745546048727,66.17401302626281,0.15104166666666666,101,0.20860686666666664,0.0010737049015234878,9.720840310557839e-07,33.63466666666667,0.009910712498210955,9.791669322825435e-06,50.59466666666666,0.6510439479960033,2.0,-0.0010892364065853968
S033,11198.0,11227.984375,N2,-2.2844583333333333,84.48755041929213,-187.68,214.2,401.88,1.555,32.83533986732917,1343.75,1321.2565104166667,0.4243816989325634,0.3992166265707824,0.13306858481207687,64.56978040381246,0.24520454748155496,65.7419196555744,0.20416666666666666,139,0.21006902499999996,0.0010388809962527024,9.693681014995968e-07,33.61333333333334,0.012736648783028787,2.569445141451203e-06,51.053333333333335,0.23676054476106315,1.0300000000000011,0.00015986115447622336
S033,11228.0,11257.984375,N2,0.15792187500000027,105.72760860069134,-309.92,342.96,652.88,21.990000000000002,0.0,1343.75,1343.75,0.5882964090750135,0.3434515750073072,0.2935652492301423,64.47542852336414,0.29288802507128586,66.1362230551458,0.11458333333333333,83,0.21128594999999997,0.0010255704254218756,2.9710511531714365e-07,33.618,0.012220201853216395,3.0555563844279606e-06,51.584666666666664,0.4482167134570319,1.1500000000000057,0.0007635418737906573
S033,11258.0,11287.984375,N2,1.1704531249999992,179.90160073418403,-1190.18,959.58,2149.76,16.049999999999997,0.0,1343.75,1343.75,0.5171022609348067,0.21529009821375644,0.26896591778616774,64.44785163308237,0.28402443592973414,65.7419196555744,0.09895833333333333,74,0.21286552499999994,0.0010309888454173497,8.667699833902941e-07,33.622,0.01222020185321632,5.416668136032538e-06,51.0,0.26694568735980706,1.0799999999999983,-0.0003695834335892556
S033,11288.0,11317.984375,N2,-2.436854166666667,164.31184028744065,-355.17,314.5,669.6700000000001,26.814999999999998,0.0,1343.75,1343.75,0.5056924227125504,0.09090593428863095,0.27161545721335933,64.4631972410991,0.2801662396181695,65.33758489567853,0.10416666666666667,80,0.2142528333333333,0.0011736955832847814,1.0691660886409688e-06,33.62533333333333,0.013349989596334006,3.4027787008395783e-06,50.965,0.44224992933860396,1.1499999999999986,-0.0005332987557776591
S033,11318.0,11347.984375,N2,3.143348958333334,172.1675106067462,-549.15,464.55,1013.7,21.74,0.0,1343.75,1343.75,0.5167916095568245,0.17677362623014653,0.25464435984329203,64.45613572551358,0.27444003748328777,65.7419196555744,0.096875,68,0.21629135833333338,0.0009231870684015749,5.546544473346499e-07,33.616666666666674,0.01299572579307907,2.0833338984733343e-06,51.248000000000005,1.3105810416249224,4.190000000000005,0.0019377088589705017
S033,11348.0,11377.984375,N2,-2.0100624999999988,170.57092601147698,-387.03,311.55,698.5799999999999,27.695,0.0,1343.75,1343.75,0.5186610951259234,0.1998263134713633,0.27794938275700487,64.46668058213936,0.2799012690546694,65.33758489567853,0.11770833333333333,80,0.21756121666666672,0.0010785200985867452,1.083506370308806e-06,33.62133333333334,0.014313940369056222,9.375002543131937e-06,53.63333333333333,0.2991803618035265,1.1099999999999994,-8.520835644757937e-05
S033,11378.0,11407.984375,N2,2.3011979166666667,174.9395342135581,-379.26,317.26,696.52,38.765,0.0,1343.75,1343.75,0.4984339624569694,0.15612494995995993,0.23040385738958447,64.4667778914464,0.2664706892915621,65.7419196555744,0.08541666666666667,65,0.21877785000000005,0.0010414541408530706,6.935904659262358e-07,33.64899999999999,0.009433981132054728,6.354168390343894e-06,53.626333333333335,1.0729662415731245,3.5800000000000054,-0.0014000351020060503
S033,11408.0,11437.984375,N2,-1.8344531249999994,144.69149571629148,-468.14,472.49,940.63,9.54,0.0,1343.75,1343.75,0.4947247761803189,0.2494438257849294,0.25819048469858236,64.4891080879665,0.28639370088846955,65.7419196555744,0.11875,84,0.22004815000000005,0.000992028617278759,7.283465517433162e-07,33.65366666666666,0.009122621455600858,-2.465278446526865e-06,51.459666666666664,0.19182428301848475,0.6499999999999986,0.00028822924485385424
S033,11438.0,11467.984375,N2,0.44794270833333305,115.11484456695322,-234.32,234.28,468.6,14.41,0.0,1343.75,1343.75,0.5065703290401925,0.2582808246366733,0.2464130699489511,64.46104670569608,0.269102098477652,65.7419196555744,0.09166666666666666,74,0.22124359166666668,0.0010225277542755895,5.819161734798608e-07,33.65733333333332,0.008919392106839197,5.902779379008729e-06,52.501333333333335,0.3437124120863578,1.0999999999999943,0.0005315973664272377
S033,11468.0,11497.984375,N2,-0.2061822916666672,122.44982028092713,-242.18,242.18,484.36,16.605,0.0,1343.75,1343.75,0.5073579696575191,0.2650647686834714,0.19364636565284551,64.44502681392001,0.2540878190691354,65.33758489567853,0.08020833333333334,64,0.22252412499999996,0.0009674241620793761,7.763841081771056e-07,33.66099999999999,0.010440306508911059,6.562501780192615e-06,52.641666666666666,0.08843390501134435,0.27999999999999403,-3.552084296897775e-05
S033,11498.0,11527.984375,N1,-5.416838541666666,135.00889217032062,-550.06,366.15,916.2099999999999,3.83,0.0,1343.75,1343.75,0.5379842779611066,0.3529390488770295,0.23488139737606575,64.47249566902708,0.26889069765613316,65.7419196555744,0.11041666666666666,76,0.22423174166666662,0.0009439767343163505,8.095017386886252e-07,33.663999999999994,0.010198039027186512,-1.5972226554961314e-06,51.79666666666666,0.4526244457482259,1.4099999999999966,-0.00048222235303340674
S033,11528.0,11557.984375,N2,4.004822916666666,89.46946878492206,-172.04,439.01,611.05,7.1899999999999995,74.1100881093039,1343.75,1318.3349609375,0.5064417932305306,0.36110844016106236,0.20810143343384788,64.49286117076606,0.2700765477222548,65.7419196555744,0.11666666666666667,79,0.22504289166666666,0.0010216396363675545,4.774239576345385e-07,33.65166666666666,0.009689627902497853,1.0416669492433653e-07,54.45433333333334,1.090625763291678,3.6199999999999974,0.001733715748078273
S033,11558.0,11587.984375,N2,1.4551197916666676,99.226451263775,-194.44,214.34,408.78,12.285,35.44334080318881,1187.5,1171.1100260416667,0.553022000767902,0.34110567511729006,0.26365486699260626,64.48824647086555,0.2965503547464638,66.64082832618455,0.12083333333333333,90,0.22672894999999998,0.0009630124337203574,3.34035246862861e-07,33.65499999999999,0.010246950765958714,-3.1250008477007324e-07,56.99333333333333,0.43919117578668265,1.5700000000000003,0.0007642363184234802
S033,11588.0,11617.984375,N2,0.10571875000000001,105.30181993423743,-297.68,447.71,745.39,-2.07,25.91419301386537,1218.75,1208.0240885416667,0.5156397304293204,0.4604956097480433,0.3247177593909654,64.48419291630132,0.3389772852307616,65.7419196555744,0.16875,125,0.22744397500000002,0.0009570190303097457,3.6215396108777275e-07,33.65466666666666,0.011175369742826196,-6.250001695420691e-06,55.544000000000004,0.9434956279707927,3.299999999999997,-0.0016293059975330936
S033,11618.0,11647.984375,N2,-0.9403645833333327,87.4209427334706,-185.65,213.27,398.92,2.9400000000000004,93.66462175336275,1109.375,1170.0276692708333,0.5228129047119374,0.4348019484489462,0.32349410736518824,64.47093162062235,0.3506198830258379,65.7419196555744,0.16770833333333332,121,0.22797768333333332,0.0011030786537635905,9.498791639212167e-07,33.64666666666666,0.011055415967849919,1.1111114125184356e-06,53.11833333333334,0.47878376005132856,1.9399999999999977,-0.0007435071461336645
S033,11648.0,11677.984375,N2,1.102114583333333,87.555957097967,-250.19,358.03,608.22,10.705,15.259385839024377,1125.0,1110.9212239583333,0.5417858442610574,0.44276470229369264,0.34327460814517324,64.49045043328366,0.3498970022524249,65.7419196555744,0.16666666666666666,114,0.22882100000000005,0.0009690172083095358,4.87047007119958e-07,33.63666666666666,0.010749676997729848,8.888891300153378e-06,51.47733333333334,0.1563528772431843,0.5700000000000003,-9.840280447124735e-05
S033,11678.0,11707.984375,R,-0.32535416666666683,109.35045550259298,-339.76,575.79,915.55,10.879999999999999,24.75786035908331,1140.625,1146.5657552083333,0.5259911279353167,0.33422894006204795,0.3736070773739289,64.47801917149523,0.34707403671372383,65.7419196555744,0.190625,139,0.23013387500000007,0.0010815862545546977,5.860954280857789e-07,33.64499999999999,0.009219544457291052,-1.7708338137023966e-06,51.352,0.23446961423604573,0.6500000000000057,-0.0002909723011535099
S033,11708.0,11737.984375,R,-1.0600468749999998,104.91908983358661,-214.96,227.4,442.36,15.645,47.37167021927353,1218.75,1194.82421875,0.5360890719419261,0.11987768650679832,0.4155075021885886,64.49007571255113,0.33839265568820115,65.33758489567853,0.21666666666666667,131,0.23136104166666674,0.0009151379531326804,2.6507363961415706e-07,33.65066666666666,0.011234866364233528,1.2569447854123557e-05,51.977333333333334,0.2748688576192093,0.7600000000000051,0.0004607640138791278
S033,11738.0,11767.984375,R,1.0719843749999993,104.39431570357893,-231.33,426.06,657.39,14.545000000000002,0.0,1062.5,1062.5,0.5149996207522874,0.09636964965693294,0.3688603295399674,64.4656520156657,0.3121194137384293,65.33758489567853,0.16979166666666667,125,0.2324495833333333,0.0009782162728092833,5.325609083552806e-07,33.67766666666667,0.014533486237728791,1.3159725792027092e-05,53.81666666666667,0.9421547407700901,2.4499999999999957,0.0015986115447622462
S033,11768.0,11797.984375,R,0.6480416666666665,107.53606511217883,-256.62,223.08,479.70000000000005,17.765,0.0,1062.5,1062.5,0.5753084544036646,0.12827311899051785,0.4634831423729334,64.49720737416548,0.37337327242711316,66.55073252789934,0.26666666666666666,136,0.23341020833333329,0.0010092455176668174,4.780940967052143e-07,33.68566666666666,0.014302291968617448,-8.090279972407165e-06,53.84733333333334,0.3402149647241027,1.220000000000006,-0.0004354167847810294
S033,11798.0,11827.984375,R,-2.243140625,105.1673593625547,-248.9,414.35,663.25,2.9000000000000004,60.91698140794928,1062.5,1076.4729817708333,0.45868239548794054,0.11987768650679835,0.49738792532980625,64.53995346294126,0.4115908178997086,65.33758489567853,0.065625,57,0.23521373333333326,0.0010776508922445908,9.773566019305048e-07,33.675666666666665,0.010857664983269543,-5.034723587979005e-06,52.965333333333334,0.8388115932012921,2.25,-0.001343472586662486
S033,11828.0,11857.984375,R,1.9123124999999996,101.13943361336128,-192.11,229.04,421.15,14.16,26.275475265603657,1421.875,1413.818359375,0.44052032838703625,0.10642856726723118,0.49727992759500045,64.51702883197153,0.40294626758137286,65.33758489567853,0.042708333333333334,37,0.23660112499999997,0.0010125530155873357,9.920699305745287e-07,33.664333333333325,0.01333749934916262,-4.548612345001383e-06,51.87066666666668,0.5555533777735097,2.219999999999999,-0.0009181946935206967
S033,11858.0,11887.984375,R,0.5489375,165.95547035938415,-518.38,643.19,1161.5700000000002,6.824999999999999,0.0,1421.875,1421.875,0.49225666401166057,0.23551574242618167,0.5113204158923574,64.49552128706617,0.4467761291704606,66.9776081985614,0.06770833333333333,53,0.23792476666666668,0.001151200957937215,1.1194178383837476e-06,33.67466666666666,0.013349989596335318,1.2986114633821743e-05,50.84166666666667,0.5325040427598229,1.6400000000000006,0.0006861460194623535
S033,11888.0,11917.984375,R,-2.018411458333332,173.2373232162538,-522.37,527.09,1049.46,0.7749999999999999,0.0,1421.875,1421.875,0.3990820630591602,0.2538569663708286,0.4995212551783959,64.57169272085623,0.4141245746424813,65.7419196555744,0.05416666666666667,42,0.23782863333333334,0.0015209741063615207,-1.6779353510024325e-06,33.669999999999995,0.010000000000001563,2.0833338984741435e-07,52.56266666666667,1.7643335537502225,5.920000000000002,0.002808056317289583
S033,11918.0,11947.984375,R,0.1818854166666668,104.01527960817121,-204.55,246.1,450.65,8.184999999999999,0.0,1421.875,1421.875,0.4511739605832027,0.07198059875565235,0.3648570401160189,64.77466595473126,0.30778854155829993,65.34523701081817,0.046875,40,0.23766857499999997,0.0009305636971078368,4.178262852176351e-07,33.67333333333333,0.012202003478483409,7.91666881420186e-06,58.97933333333333,0.3949002687036587,1.8699999999999974,0.0003310417564674898
S033,11948.0,11977.984375,R,-0.6734739583333339,139.41570054182216,-546.51,884.98,1431.49,14.83,144.0330811751051,1421.875,1322.0784505208333,0.7637278081427672,0.9306643152653556,0.5599440386225117,64.77397126432471,0.3642068758811123,67.43144666993287,0.04479166666666667,34,0.2388534166666667,0.0010326098616558366,7.326503723552425e-07,33.693999999999996,0.018903262505010832,2.1944450397257964e-05,60.329333333333324,1.1553554527599816,4.159999999999997,-0.0006980557449152956
S033,11978.0,12007.984375,R,1.8785781249999998,123.61633120309666,-603.32,398.39,1001.71,4.035,0.0,1078.125,1078.125,1.354598889354951,0.9210124260230634,0.5338376521835912,64.80034301295414,0.7085222204125584,69.06518659932803,0.03125,14,0.23995264166666672,0.0009173149022721363,5.660290163924146e-07,33.71933333333333,0.019482185594935763,2.2708339493363523e-05,55.80566666666667,0.5053360817867211,1.7199999999999989,0.0001860764393653533
S033,12008.0,12037.984375,R,-0.08246354166666686,116.40388759940055,-625.55,829.86,1455.4099999999999,-2.885,41.873542292133806,1078.125,1097.1842447916667,0.5457130513145164,0.5040192191413824,0.29854246627015507,64.93843164337767,0.3417050848805196,65.82552696332935,0.17708333333333334,120,0.24119044166666667,0.0009376599489849983,7.333901729031458e-07,33.725666666666676,0.013085190950926119,-7.812502119275845e-06,57.204666666666675,0.5934966067487014,1.990000000000002,0.0009827085999101026
S033,12038.0,12067.984375,N2,0.47356770833333284,112.2871423425164,-276.1,223.24,499.34000000000003,19.195,41.0360812083403,1015.625,1039.84375,0.5396597436245257,0.4999902342796308,0.3487079325484613,64.94302942857307,0.3562119773737307,65.82552696332935,0.20833333333333334,139,0.24218309166666668,0.0009556894631262608,6.654977933750541e-07,33.717999999999996,0.016613247725835296,4.5833345766421135e-06,58.476333333333336,0.48919309979688863,1.6499999999999986,-0.0004964237457746706
S033,12068.0,12097.984375,N2,-1.9332239583333335,137.96526673546262,-341.96,641.05,983.01,16.515,0.0,1015.625,1015.625,0.5201495511442411,0.48858053327982687,0.4025957443060387,64.89739308741362,0.3916254048443887,65.82552696332935,0.18541666666666667,132,0.24316499166666672,0.0009910340853189132,9.666246111720436e-07,33.73266666666667,0.015260697523013423,5.694445989161562e-06,55.604000000000006,1.2430596660391375,3.5899999999999963,-0.0022065978208001893
S033,12098.0,12127.984375,N2,0.8923541666666668,137.46345299554315,-281.48,283.39,564.87,22.33,0.0,1015.625,1015.625,0.47870902058441395,0.46639570816766984,0.42809331796804406,64.85762449038376,0.4031175978641021,65.82552696332935,0.15625,106,0.24414672500000006,0.000977018500016763,5.868892651066815e-07,33.736000000000004,0.011718930554165936,8.819446836873424e-06,52.20666666666666,0.6332842086211282,2.1400000000000006,-0.0010806947376016543
S033,12128.0,12157.984375,N2,0.7945520833333328,143.96843252228723,-339.0,296.4,635.4,22.715,0.0,1015.625,1015.625,0.464857682447602,0.47920176501889294,0.45210613421764395,64.84764681398829,0.4163264202948694,65.82552696332935,0.17291666666666666,119,0.24511785833333335,0.0010625153747580453,9.819570806090201e-07,33.744666666666674,0.016275407487646977,2.7777785312988883e-06,51.785333333333334,0.8952419908729831,3.719999999999999,0.0011027780769254777
S033,12158.0,12187.984375,N2,-2.3200677083333328,138.89131631290286,-370.64,293.55,664.19,15.23,0.0,1015.625,1015.625,0.5406882188470542,0.4931815908944922,0.4424521317486095,64.87034740057396,0.4076188524188058,65.82552696332935,0.190625,119,0.24665492499999994,0.0009281112914812565,2.6326113912248863e-07,33.757333333333335,0.014126413400279174,4.86111242977794e-07,65.64133333333334,5.274696663210964,15.329999999999998,0.0091956274944736
S033,12188.0,12217.984375,N2,-0.21450520833333306,151.21032972618312,-385.1,812.9,1198.0,6.460000000000001,0.0,1015.625,1015.625,0.4602941013332913,0.48626869965471653,0.4685404624261981,64.84262616094742,0.42875698433777654,65.83312236253116,0.190625,117,0.24716731666666666,0.0009426959741731307,1.781797358343473e-07,33.75333333333333,0.014681810363699123,5.902779379010085e-06,70.35633333333334,1.0892642266941273,4.599999999999994,-0.0014946879054600446
S033,12218.0,12247.984375,N2,0.7520416666666663,267.1751448476697,-1609.08,1689.89,3298.9700000000003,9.16,0.0,1015.625,1015.625,0.4750171323664723,0.4559490540954719,0.405366293119226,64.87566104086665,0.39218980597444153,65.82552696332935,0.16875,116,0.24868284999999996,0.000930171692484773,4.2709039363345745e-07,33.75066666666667,0.0131487219488794,2.8472229945813354e-06,56.983333333333334,4.651736832147274,14.0,-0.00792833548403198
S033,12248.0,12277.984375,N2,-0.8211093749999994,204.5250848512346,-456.72,394.44,851.1600000000001,20.22,0.0,1015.625,1015.625,0.4720255922322668,0.4714045207910317,0.41339864235384227,64.87700421498907,0.3944288127034075,65.82552696332935,0.17083333333333334,123,0.24971795833333335,0.0011804565670100805,1.3267306116348261e-06,33.75333333333334,0.01164283279771714,7.84722435091929e-06,60.187,3.0541427056813606,10.649999999999999,0.005203716689376272
S033,12278.0,12307.984375,N2,2.147963541666665,192.73531003406134,-540.08,637.99,1178.0700000000002,-1.03,0.0,1015.625,1015.625,0.594746057796005,0.4913741626381401,0.4283251762355585,64.9407486311645,0.3955488472653389,65.82552696332935,0.25416666666666665,139,0.25030484999999997,0.0009025628662314965,1.2142538016096458e-07,33.75666666666667,0.013984117975604206,-9.861113786110967e-06,64.73133333333334,0.47937969177770634,2.269999999999996,-0.0005387501461453308
S033,12308.0,12337.984375,N2,1.4220104166666658,130.66918904965976,-300.77,260.93,561.7,7.27,0.0,1015.625,1015.625,0.5340449354273061,0.4104735049475044,0.40232478717449166,65.03095130032975,0.3768814678460049,65.82552696332935,0.3489583333333333,181,0.2509346,0.0009461123911389563,-1.117291969751555e-07,33.74066666666667,0.014360439485693243,-3.888889943817867e-06,56.080000000000005,2.981193273394621,10.879999999999995,-0.0050801402669651335
S033,12338.0,12367.984375,N2,-3.304229166666668,159.24198128761716,-483.1,487.97,971.07,8.605,0.0,1015.625,1015.625,0.47212212991508407,0.4918067861778196,0.48491904930101487,64.75066093993499,0.44934156448954227,65.82552696332935,0.20416666666666666,139,0.2512441416666667,0.00100126905554762,7.519144834837449e-07,33.748666666666665,0.013597385369582883,9.027780226721306e-06,51.940000000000005,0.4964205206609952,1.3200000000000003,0.0008563891211993058
S033,12368.0,12397.984375,N2,2.15090625,127.71589158701516,-349.32,274.04,623.36,10.62,0.0,1015.625,1015.625,0.4233308214328364,0.462664197579867,0.46308966726818207,64.76497100497767,0.431312791836746,65.82552696332935,0.21666666666666667,141,0.25225805833333337,0.001018218888515894,6.752048272582508e-07,33.736000000000004,0.012806248474866257,-1.1041669661911725e-05,52.620000000000005,0.47207344061420564,1.2700000000000031,-0.0006932640769488061
S033,12398.0,12427.984375,N2,1.349677083333334,139.80055179239537,-576.17,557.78,1133.9499999999998,9.14,0.0,1015.625,1015.625,0.49284815669286575,0.489999822845773,0.49705731281434967,64.87263953708927,0.43423053502611175,65.82552696332935,0.265625,153,0.2520445916666667,0.0011406217419740329,7.0033330629701e-07,33.72366666666667,0.01378001773906184,-1.2881947938894719e-05,53.614333333333335,0.44060324808405804,1.6000000000000014,0.0006184376677619533
S033,12428.0,12457.984375,N2,0.04106249999999889,153.36390795539302,-378.96,587.85,966.81,11.08,0.0,1015.625,1015.625,0.47010914069678195,0.499995659703384,0.4928294424798503,64.8083910320026,0.4547821929725539,65.82552696332935,0.22083333333333333,138,0.25369864166666667,0.001071395762512874,9.290664412615053e-07,33.71433333333333,0.016868774571839128,8.923613531795759e-06,56.842,1.695093704391195,4.799999999999997,0.0029303480171299938
S033,12458.0,12487.984375,N2,-1.6454947916666667,162.8398185384342,-342.51,699.57,1042.08,6.0649999999999995,0.0,1015.625,1015.625,0.41779924197779755,0.4992083576774331,0.49960813637345375,64.75543704304518,0.45533690553860706,65.82552696332935,0.2,139,0.2549367416666667,0.0010099153058205233,4.5003202312066714e-07,33.73266666666667,0.015260697523013069,1.4305559436186877e-05,56.05266666666667,1.1336428988981597,3.6499999999999986,-0.0020111811011233453
S033,12488.0,12517.984375,N2,1.6590833333333337,122.1974414352706,-307.82,269.6,577.4200000000001,-0.53,0.0,1015.625,1015.625,0.3965987665099606,0.4951051638428839,0.4951051638428839,64.77513263864493,0.46312343130312195,65.82552696332935,0.2375,145,0.255470475,0.0009349047363457317,1.648444457585847e-07,33.724000000000004,0.011718930554163348,-3.819445480535222e-06,52.815666666666665,0.6915426394823545,2.4199999999999946,-0.0009978822151373188
S033,12518.0,12547.984375,N2,-1.4392083333333334,121.05841699489864,-292.11,295.6,587.71,-4.15,0.0,1015.625,1015.625,0.5345841046370117,0.46407272949817774,0.4763094159495717,64.78442520625181,0.43912871563936406,66.2872536767062,0.21354166666666666,143,0.2560789416666666,0.00099016687394797,1.5623984272999013e-07,33.724333333333334,0.019093337988825693,-1.4826392910804342e-05,53.16966666666667,0.32906416125464405,0.9200000000000017,0.00045885429113885984
S033,12548.0,12577.984375,N2,-0.28988020833333245,142.7879196477398,-572.91,610.16,1183.07,7.96,0.0,1015.625,1015.625,0.5525263552663248,0.5150080484133772,0.4988485004376468,64.7028444800918,0.4451586066266488,66.40030120413611,0.15729166666666666,108,0.25670873333333327,0.0009613045366699447,-9.58871787888366e-08,33.717999999999996,0.015790292376434974,1.38888926564884e-06,53.67600000000001,0.2542911716910366,1.0,-0.00018326393860241416
S033,12578.0,12607.984375,N2,-0.23095312500000015,122.15211266540912,-292.15,258.33,550.48,9.32,0.0,1015.625,1015.625,0.5037608128836761,0.3210226714043037,0.49834687655788523,64.6683613324259,0.43171276577856654,65.82552696332935,0.13020833333333334,98,0.2577332083333333,0.0010965186493005433,1.179125970900056e-06,33.708666666666666,0.019955506062793595,6.250001695421335e-06,53.399333333333324,0.3402149647241024,1.1799999999999997,0.000559097373887091
S033,12608.0,12637.984375,N2,0.27695312499999986,118.43382530287874,-339.22,312.04,651.26,14.11,0.0,1015.625,1015.625,0.5322743392483074,0.30682167447974656,0.4866935994259861,64.6489883795227,0.40948321618622274,65.82552696332935,0.115625,88,0.2586829166666666,0.000934907353550203,3.368668448532075e-07,33.699999999999996,0.014142135623731487,-6.250001695421703e-06,52.56500000000001,0.6828701682360027,2.3200000000000003,-0.000848298841226899
S033,12638.0,12667.984375,N2,0.10358854166666744,121.44233976797501,-355.98,256.47,612.45,-0.43,0.0,1015.625,1015.625,0.6874045072569878,0.5456971442695012,0.4921210823793492,64.72902828456967,0.39102088867537876,66.24198064671678,0.11875,78,0.2594299416666666,0.0009167166892033261,1.4453280830425742e-07,33.70533333333333,0.013597385369580701,-6.666668475116384e-06,52.37833333333333,0.5029319591709759,1.5,-0.0006386460065771512
S033,12668.0,12697.984375,N2,2.3732031249999994,99.91916577028441,-433.19,432.66,865.85,2.8600000000000003,0.0,1015.625,1015.625,0.5639785737040213,0.4885805332798269,0.27857329663343944,64.73087186891857,0.33175355759926517,65.82552696332935,0.07083333333333333,60,0.2603265833333333,0.001015744739779088,4.0695063122575936e-07,33.686,0.015620499351814296,-1.138889197832423e-05,55.669999999999995,1.5254900851857414,4.470000000000006,0.002528264574724549
S033,12698.0,12727.984375,N2,-2.152645833333333,94.74422299274804,-259.39,471.87,731.26,-3.355,76.39066135392365,1015.625,1043.9453125,0.5325352101035198,0.47066276408910873,0.19045985560538006,64.82275185631619,0.2802679214427744,65.82552696332935,0.042708333333333334,38,0.2609029333333333,0.0009232878273984832,2.6180258837960686e-07,33.67933333333333,0.014590712418827478,-3.4722231641232096e-06,58.36333333333334,0.7567709179284193,2.3599999999999994,0.0013177781352479753
S033,12728.0,12757.984375,N2,-0.09370833333333325,101.19786908936092,-233.69,186.53,420.22,15.254999999999999,22.190207195337525,1250.0,1234.1064453125,0.4782600118020415,0.48693766534388727,0.09126331714087295,64.82253053108755,0.2718649411448136,65.82552696332935,0.034375,27,0.26241824166666666,0.0011139064143502098,1.2516177440369245e-06,33.68866666666666,0.017838784213680226,1.1180558588477432e-05,57.14466666666667,0.7852546649902111,2.690000000000005,-0.0013701392605629502
S033,12758.0,12787.984375,N2,0.8775781250000002,121.69087980120274,-302.46,354.38,656.8399999999999,15.17,0.0,1203.125,1203.125,0.5194888897726516,0.4990866223384697,0.1286785130556855,64.78847975405812,0.2790898744178274,65.82552696332935,0.03229166666666667,22,0.2633146666666667,0.0009976080253397191,4.086324893208763e-07,33.716,0.013564659966249094,8.611113447024406e-06,55.077,0.8961999404894718,2.530000000000001,-0.0015414934737124218
S033,12788.0,12817.984375,N2,0.11687499999999863,101.61773300086149,-240.72,230.19,470.90999999999997,9.21,53.401044713562854,1203.125,1246.0205078125,0.5088794880257342,0.4671953385630041,0.12496093139457626,64.82369488961848,0.26816821397141344,65.45991139621256,0.020833333333333332,19,0.26382700833333333,0.0009783580930640347,4.319951258667337e-07,33.720333333333336,0.0166299595776874,-9.06250245836105e-06,53.934666666666665,0.2672294062328386,0.8200000000000003,-2.201389486054059e-05
S033,12818.0,12847.984375,W,-1.6284999999999985,274.62830457357876,-2180.87,1474.08,3654.95,-0.0050000000000000044,0.0,1312.5,1312.5,31.590078435413158,14.55711393004198,19.976072492415074,64.69543102618667,5.908958255839712,147.26167186338745,0.046875,19,0.23551269999999996,0.04095340880512879,-4.91688115149771e-05,33.723,0.020840665376453796,-3.5763898590464347e-06,54.60333333333333,0.9044716075637143,2.990000000000002,0.0014083337153683036
S033,12848.0,12877.984375,W,0.9041302083333338,147.32052401557166,-857.57,812.7,1670.27,6.12,76.25411330004559,1312.5,1364.892578125,14.359518233175125,14.51211146330071,6.303878876444954,64.80455857708219,4.409438282010233,132.48773528142144,0.04895833333333333,16,0.21176610833333334,0.007487166959533526,-8.155641318262073e-06,33.74433333333333,0.05070722061227886,8.302085585418307e-05,60.321666666666665,1.0478297677687065,3.8799999999999955,0.0011826044874686653
S033,12878.0,12907.984375,N1,-0.4491666666666668,74.40061024988675,-408.75,432.34,841.0899999999999,-0.505,0.0,1484.375,1484.375,0.49709987923007537,0.8107827739889534,0.5932746635318998,64.4671220012722,0.36880103907096845,66.12866246946176,0.020833333333333332,12,0.1988949583333333,0.0017150598502473809,-2.2578276524055104e-06,33.827,0.018999999999999812,2.572917364615142e-05,59.58666666666667,0.7338498181205438,2.8599999999999994,-0.0011496530896411368
S033,12908.0,12937.984375,N2,0.001994791666665859,49.134949135963524,-298.05,239.64,537.69,1.895,14.118729717826792,1187.5,1182.2672526041667,0.18526152217128689,0.13215215741081693,0.4344824007911279,64.59747640999639,0.2708008984997699,65.49045732013177,0.003125,3,0.196216175,0.001487031862819908,-2.129669631529294e-06,33.86233333333334,0.016669999666732164,1.2881947938895406e-05,53.18666666666666,1.3717831056289072,5.089999999999996,-0.002136111690568492
S033,12938.0,12967.984375,N1,-1.3132604166666675,115.13771269972254,-466.87,648.58,1115.45,0.835,58.898278530958954,1203.125,1175.9033203125,0.4099974064111733,0.4019146342992364,0.5036315600355967,64.28712882871979,0.3865772362464376,68.19090848492928,0.246875,123,0.19418851666666673,0.0009649899998042612,4.249580145827962e-07,33.839333333333336,0.013646326326972056,-1.3055559097104017e-05,52.23266666666667,0.4759477095461461,1.8500000000000014,0.0007993752168444062
S033,12968.0,12997.984375,N2,3.9470989583333327,103.96725028960742,-461.33,655.66,1116.99,4.21,42.145269159151034,1203.125,1193.1966145833333,1.2958228663832363,0.7369458546652754,1.2162028225405315,64.47238594461147,0.48839936772996423,70.63993204979744,0.021875,14,0.1939643583333334,0.0010568145595438662,-2.8618866270308876e-07,33.815333333333335,0.01454494948618012,-2.3611117516024794e-06,55.36566666666668,0.7090824274292012,2.8699999999999974,0.0011923267123282086
S033,12998.0,13027.984375,W,-3.6873854166666655,86.21698033484927,-395.04,206.73,601.77,4.01,52.631443493024626,1187.5,1183.2763671875,0.12909944487358055,0.3465542185414699,0.3197747009614738,64.53953110152861,0.21400980075535173,65.4217089351845,0.003125,3,0.19372958333333337,0.0009017279761965695,-1.1453041301280769e-07,33.80466666666667,0.012578641509409341,-5.555557062596913e-06,57.345666666666666,0.2818827573458315,1.0799999999999983,0.00030559036067446936
S033,13028.0,13057.984375,N1,1.1437708333333345,240.99462749641324,-1374.91,1424.09,2799.0,6.51,0.0,1093.75,1093.75,15.4214806673102,17.149188329867506,10.187918362234532,65.5995581156675,5.924442310954569,128.2380598730346,0.07083333333333333,28,0.22179836666666664,0.016526530611380263,7.337379594558259e-06,33.66700000000001,0.07581336733496631,-0.00012010419924701457,58.656333333333336,2.219467628859577,5.829999999999998,0.003778369080503764
S033,13058.0,13087.984375,N2,-0.23783333333333345,50.67811582360334,-181.39,191.04,372.42999999999995,7.04,55.32013171768811,1187.5,1196.7692057291667,0.9790508575131439,0.5124227160563392,0.7658843098286233,65.00405642508962,0.3856033589491664,67.08949247087803,0.08958333333333333,55,0.22716655833333335,0.001313015097627302,1.200432834318807e-06,33.61400000000001,0.012000000000000455,1.5277781922143503e-06,60.509,0.4315425819082047,1.6199999999999974,-0.0003378125916375301
S033,13088.0,13117.984375,N2,-0.4542031250000001,70.97492046557119,-233.25,445.07,678.3199999999999,8.2,115.7089315395989,1156.25,1130.4443359375,0.48476686657666235,0.4258862797319126,0.32790998246046466,64.94114307568438,0.3010720126900756,65.95452979136459,0.2708333333333333,145,0.23167055,0.001467613129370265,1.761155859688538e-06,33.63533333333333,0.017461067804943577,2.500000678168319e-05,63.77700000000001,1.417531069618346,4.550000000000004,0.001908993573403204
S033,13118.0,13147.984375,N2,-0.38074999999999976,48.206264095896636,-123.83,159.29,283.12,7.795,97.39050723113849,1218.75,1214.1194661458333,0.8770585903081579,0.608443911182909,0.46902306861058435,65.08519036049992,0.4223889252278778,70.2922470831599,0.03125,22,0.2335596333333333,0.0012584815714008527,4.330682598383954e-07,33.67766666666666,0.020765890836231354,2.218750601874769e-05,68.87133333333333,1.9044137038877755,6.219999999999999,0.002344167302562743
S033,13148.0,13177.984375,N2,1.1803854166666667,54.21318294241067,-114.6,148.55,263.15,10.125,99.23466031724199,1203.125,1161.865234375,0.5086480839085987,0.4802343178074636,0.424508242869192,65.1373877030208,0.3563330273132038,66.0,0.04583333333333333,35,0.23491498333333327,0.0009732294948891694,1.1973527553582814e-07,33.702999999999996,0.016155494421403332,-7.395835339581608e-06,61.683666666666674,4.384699520935144,11.68999999999999,-0.007533300654649698
S033,13178.0,13207.984375,N1,-0.5581406249999998,53.67769797530574,-120.53,83.27,203.8,10.3,60.155509624906784,1234.375,1222.6643880208333,0.5644170650005976,0.4699106002445808,0.4949385746820845,65.08738665200313,0.38299105208559414,66.1362230551458,0.053125,44,0.23784998333333332,0.0019224697092686675,2.9079105110434327e-06,33.67466666666666,0.01407914138796311,-1.701389350420458e-05,51.90466666666667,2.4607502017790335,7.390000000000001,-0.0039553482951791155
S033,13208.0,13237.984375,N2,0.731,49.510576569346945,-117.11,79.41,196.51999999999998,9.83,121.46402824403302,1218.75,1237.59765625,0.5143091374736491,0.4148083560178389,0.2732186624299299,65.05913916499608,0.3355261187154062,66.01514977639603,0.034375,28,0.24170275000000002,0.0010053380049349916,6.385236107106156e-07,33.658333333333324,0.01157103663847266,-1.253472562248315e-05,51.66133333333334,1.6543190609902176,4.480000000000004,0.0027373618536680367
S033,13238.0,13267.984375,N2,-1.1792239583333337,54.59712442893101,-118.4,84.9,203.3,10.85,61.534285085225804,1187.5,1182.7962239583333,0.5177408189003022,0.4545296714431547,0.2919474095287636,65.07142266959605,0.34843950424066467,66.1362230551458,0.04375,33,0.24259937500000006,0.0009156406142013391,6.407043838716337e-07,33.642666666666656,0.01062491830033737,-8.333335593893632e-07,57.483333333333334,1.6909372811813241,5.200000000000003,0.0025148617933110334
S033,13268.0,13297.984375,N2,0.8141406249999998,48.3805157750236,-122.8,85.03,207.82999999999998,10.530000000000001,35.15141206584711,1156.25,1173.14453125,0.5684064896709043,0.43320811492091565,0.2802451184033165,65.11683362672395,0.3416554251782104,66.06057825965497,0.035416666666666666,27,0.244733675,0.0010840410598196948,9.984701059217981e-07,33.64766666666666,0.01054619467970215,-4.062501102023145e-06,58.18033333333334,0.7462818204643302,2.549999999999997,-0.0010371183368919098
S033,13298.0,13327.984375,N2,-0.2540833333333331,53.91440716923188,-119.89,84.69,204.57999999999998,10.75,93.66580007702028,1195.3125,1168.3430989583333,0.5664205577694801,0.5434226345324807,0.5446074019164835,65.09797508634558,0.3423175779809372,66.1362230551458,0.07395833333333333,40,0.24675099999999997,0.0011732336581715829,9.774008727758472e-07,33.626666666666665,0.011642832797715717,-7.013890791528767e-06,53.53666666666666,1.7148495236868133,5.280000000000001,-0.002517153460599354
S033,13328.0,13357.984375,N2,0.20197916666666657,49.50178479462869,-115.34,120.0,235.34,9.54,84.05323251646288,1234.375,1215.6005859375,0.5144515266416156,0.32403033765717404,0.11172573064826603,65.16320222341962,0.32881249426775805,66.10597552415364,0.008333333333333333,5,0.2481812833333333,0.0009666294893712965,3.3841198416123285e-07,33.591333333333345,0.01783878421367981,-2.3611117516036542e-05,53.019999999999996,0.5158229670471576,1.6899999999999977,-0.0002263889503008222
S033,13358.0,13387.984375,N2,0.3449791666666668,52.56054506272963,-112.81,81.23,194.04000000000002,13.43,57.99571323904433,1187.5,1189.5589192708333,0.4826144078523419,0.405366293119226,0.08507936450096985,65.15521096025395,0.3171246728574688,66.10597552415364,0.009375,8,0.24871486666666665,0.0009863301334858483,7.713595842446733e-07,33.57066666666667,0.014126413400280268,9.375002543133665e-06,52.35433333333334,0.17956769073403836,0.4899999999999949,0.0002755903525364437
S033,13388.0,13417.984375,N2,-0.5780677083333328,70.9048690159745,-383.33,363.08,746.41,9.045,45.33010265114402,1234.375,1206.0709635416667,0.884221619993477,0.5217117592332208,0.6561995681680147,65.09907037464168,0.33008032979374563,66.53570470055908,0.30625,128,0.24840525833333332,0.001689299127329799,-1.8994204371257635e-06,33.58333333333334,0.012995725793079192,-4.722223503207254e-06,51.04533333333333,0.7377747322560974,2.030000000000001,-0.001260972564282923
S033,13418.0,13447.984375,N2,0.3751302083333334,49.19356852001129,-122.53,128.72,251.25,10.685,54.7518826504045,1234.375,1238.1754557291667,0.31810085042587777,0.2919474095287635,0.4010349025403594,65.03117758275859,0.2994865601639997,65.85590330410783,0.11979166666666667,88,0.24857615,0.0009495845288861805,7.855575047627727e-07,33.56933333333333,0.015040685563573035,-7.430557571224091e-06,50.23633333333333,0.17771669089374326,0.75,-4.3784734099591844e-05
S033,13448.0,13477.984375,N2,0.12289583333333352,46.248718093153485,-107.93,104.66,212.59,8.86,109.50745056009798,1140.625,1089.0869140625,0.5265838789758212,0.4694670441634381,0.5363106592860978,64.9573083458693,0.3902039547812068,65.87108622149782,0.13229166666666667,87,0.24979259999999998,0.0010109939366781606,-5.076850335517149e-07,33.56333333333333,0.013984117975603078,-6.527779548552724e-06,50.19666666666667,0.3835477661111963,1.0500000000000043,0.0006022223855854995
S033,13478.0,13507.984375,W,-1.2417499999999972,203.91244248134623,-933.12,1131.56,2064.68,8.27,71.42404072637015,1109.375,1150.4231770833333,19.363302220263563,14.826279594802733,24.39688278325595,65.15869989691433,4.882480866375524,136.4148085803004,0.052083333333333336,22,0.22101916666666663,0.02239953136426941,-3.702825787441892e-05,33.57966666666667,0.04483178435985965,6.517362879059127e-05,53.497,3.1295240852244612,10.380000000000003,0.00472732767125859
S033,13508.0,13537.984375,N2,1.312890625,27.32326347273578,-53.5,69.36,122.86,1.895,219.3464411591443,1265.625,1140.7145182291667,0.0,0.22838645595544602,0.11110243021644485,64.91497856743214,0.02767531678961827,65.05382386916237,0.06770833333333333,51,0.19696317500000002,0.0016441816387010423,-2.470529967049133e-06,33.721666666666664,0.046266138325514614,8.031252178616756e-05,63.995,0.8645952810419465,2.960000000000008,0.00041684039085297154
S033,13538.0,13567.984375,W,-0.3951562500000002,26.529381822263016,-67.16,77.38,144.54,-0.81,137.756074285304,1328.125,1351.2288411458333,0.03225804701500421,0.10663227798529551,0.26100766272276377,64.90666383603455,0.045530312299540784,65.76473218982953,0.022916666666666665,17,0.19356941666666672,0.0012946518939038788,-1.5652473864060888e-06,33.893,0.051649459500237194,9.02430800355575e-05,60.11266666666666,3.259558184103415,10.899999999999999,-0.004930070781811734
S033,13568.0,13597.984375,N1,-0.1963802083333339,89.62181800936287,-488.49,414.22,902.71,4.095,100.23578688064137,1187.5,1110.0423177083333,0.6104335535206832,1.0325302448825517,1.9438781107299397,65.13542544265142,0.6376211556485236,71.87489130426563,0.03229166666666667,22,0.190442075,0.000986313905090568,-7.63592872068381e-07,34.02866666666667,0.03774770044504548,6.458335085268847e-05,50.936,1.5720318062940073,5.090000000000003,0.0020654172269469464
S033,13598.0,13627.984375,W,0.048520833333333256,33.812850404832275,-151.24,181.93,333.17,2.065,101.55060005572085,1015.625,1072.2981770833333,0.2250554522717062,0.4809285993869914,0.621356567821569,65.09131320562243,0.243899229660077,66.58077800686922,0.020833333333333332,13,0.18815834999999997,0.001297561730387672,-1.7766484854189574e-06,34.13833333333333,0.027818858511606658,4.36458451730231e-05,55.42033333333334,0.6515646979046321,2.049999999999997,0.001146146144245372
S033,13628.0,13657.984375,W,-0.7765000000000002,199.39725891483565,-1396.03,1036.87,2432.8999999999996,5.975,84.4641849922771,1109.375,1179.4677734375,31.61281589993628,15.037937557132702,27.41579785857457,65.37352522044655,7.333080884024004,113.9034679015525,0.0875,29,0.18637595833333334,0.016414440182552593,5.483241504785561e-07,34.164333333333325,0.07045960229490028,-8.899307969647352e-05,59.416000000000004,1.7066509113856105,5.920000000000002,0.0029810424753261926
S033,13658.0,13687.984375,W,0.7379010416666687,278.8206690909286,-1940.83,1557.43,3498.26,4.345000000000001,0.0,1109.375,1109.375,44.17283683315901,20.536698578356354,25.649239805580333,64.55515625714587,8.78928849692334,133.8992158304148,0.10104166666666667,31,0.17589541666666667,0.02702450951376772,-1.012379311083798e-05,33.986,0.05413563213509931,-6.937501881918024e-05,67.49,2.8976300661057484,9.95000000000001,0.005214029192173718
S033,13688.0,13717.984375,W,0.14167708333333348,29.75334147200767,-199.08,135.83,334.91,3.115,25.475286205423952,1171.875,1158.7239583333333,0.5657458434447398,0.7022996699336322,0.9395787139576025,62.39649027724538,0.5019555906227513,64.7533782902483,0.041666666666666664,28,0.18376124166666663,0.0016698958200829699,1.9568905047988623e-06,33.96466666666667,0.02186829262247557,2.555556248794523e-05,71.49666666666667,1.389377158617806,4.650000000000006,-0.002343958969172897
S033,13718.0,13747.984375,W,-0.3838802083333338,45.27351964490648,-96.51,66.87,163.38,9.18,74.36923603977962,1140.625,1143.3675130208333,0.4068371824889603,0.4962084977747649,0.4880505705098602,62.385995426403994,0.3737084291708091,66.49060083951716,0.027083333333333334,13,0.18530886666666663,0.001029810774959278,1.1108848499579161e-06,34.01733333333333,0.025157283018816395,4.0277788703825036e-05,62.026,3.3096027959056764,10.580000000000005,-0.005922362717654817
S033,13748.0,13777.984375,W,0.6959270833333338,145.178542683135,-999.86,664.14,1664.0,13.24,64.07722314295391,1171.875,1152.7750651041667,37.27418532299607,7.754028690783908,16.64502970525703,62.9072280853409,3.1907138102463737,83.24662155306964,0.05416666666666667,16,0.17506301666666663,0.013731973574461985,-1.305987724063511e-05,34.08266666666667,0.04081938537291123,-9.027780226722263e-07,53.725666666666676,1.9102245650417358,5.5,-0.0033008689509735636
S033,13778.0,13807.984375,W,0.3794947916666658,162.12054477753125,-942.56,901.82,1844.38,7.26,15.469037619505974,1187.5,1191.1214192708333,0.7802882969703498,0.1823839052353274,0.8177706982587207,64.7473497401499,0.4263136091861137,67.14908785679818,0.009375,6,0.1753939333333333,0.0012793218303286966,1.4649413696130066e-06,34.21266666666667,0.03032417444145075,4.6736123789095634e-05,56.562999999999995,1.9953765726465436,6.25,0.0034068412019426
S033,13808.0,13837.984375,W,-3.602583333333332,116.49122676279698,-659.76,493.34,1153.1,1.145,53.78990148676299,1062.5,1102.4169921875,2.229520999876182,0.5861687043846677,2.3508178153658923,64.6152366921967,0.6401006780673503,73.60027173862879,0.034375,21,0.17590624166666663,0.0014189865749648805,-1.2502357992176136e-06,34.239333333333335,0.01691810338726703,-1.2638892317408597e-05,59.518333333333324,0.7475786840787322,1.8699999999999974,0.0012620489534638003
S033,13838.0,13867.984375,W,1.8233541666666662,117.23154717089977,-436.78,655.86,1092.6399999999999,3.64,62.54584379519032,1125.0,1129.5654296875,0.2635869526308581,0.04559597630883184,0.48405119104858685,64.69957501140723,0.2911786564224275,65.3299318842443,0.010416666666666666,8,0.1758849583333333,0.00096892542193086,1.6725547071817285e-07,34.206333333333326,0.022874051285730078,-3.552084296897762e-05,57.37266666666667,1.0326565525650606,3.8500000000000014,-0.0018084727128018427
S033,13868.0,13897.984375,W,1.8419895833333335,122.70072243063565,-620.89,532.41,1153.3,4.08,58.79327780761935,1109.375,1153.4016927083333,24.49347666840205,19.730718408485043,16.060193542521954,65.43541787473364,5.523420216887683,123.74974747448982,0.10625,45,0.1620863583333333,0.09889817629476254,-7.458519275857008e-05,33.919,0.3251907132745331,-0.00048739596554794954,57.095666666666666,1.847471575484241,6.0,0.0028737160573231494
S033,13898.0,13927.984375,W,-0.6219843750000001,86.46690816295083,-493.63,431.2,924.8299999999999,4.66,22.228686233662913,1140.625,1128.3284505208333,0.7687217700327097,1.00476080279504,0.9127514636389252,64.88806469915747,0.6042361000642441,71.58910531638176,0.09895833333333333,71,0.04868835833333333,0.0029912395251128292,-4.670150789428926e-06,33.610666666666674,0.028039654459750905,4.3541678478103055e-05,62.97266666666667,0.4426957821750234,1.8100000000000023,-0.00021250005764433032
S033,13928.0,13957.984375,W,0.2332187499999995,130.0256907121069,-618.61,491.74,1110.35,5.02,19.05581657662166,1109.375,1117.3746744791667,19.78296955291589,17.873615792364326,21.013954291294088,64.9915658867273,4.956110396051654,94.15943925066674,0.09375,33,0.06989440833333332,0.02658701868973398,9.013691464217518e-06,33.64133333333333,0.015648926125739454,-9.027780226718249e-06,64.84666666666666,1.6874938683016167,5.179999999999993,0.0029204174588806035
S033,13958.0,13987.984375,W,-0.3877395833333333,91.19364131418658,-672.86,373.13,1045.99,1.2650000000000001,6.156556639804319,1109.375,1112.3779296875,1.732606706169605,1.1474136829070072,3.849712375394282,65.10641270476674,0.35768894762749426,66.60330322138685,0.18229166666666666,107,0.18815829999999997,0.005276871293042246,-8.763842221094355e-06,33.70766666666666,0.02124199195513925,1.7395838052256184e-05,75.68433333333333,5.459830695380784,17.650000000000006,0.009764829037768293
S033,13988.0,14017.984375,W,0.2867864583333333,154.84354111972533,-912.41,712.19,1624.6,8.405000000000001,52.62585435235718,1093.75,1074.560546875,20.62847182479567,25.610215162308226,11.385789249393177,64.88332742840365,3.011898097860941,87.69834662067467,0.0625,20,0.2051383833333333,0.021026554608075686,2.328107402372885e-05,33.719,0.019209372712297907,-4.687501271565068e-06,92.55266666666667,2.5455725398337306,8.620000000000005,0.0009011113555532084
S033,14018.0,14047.984375,W,0.21722395833333413,119.9329597675121,-787.03,465.78,1252.81,25.215,106.99077871285796,921.875,1015.966796875,8.681562656856803,3.9664465920655396,4.032155771411933,65.354875889007,2.708703108960117,102.06370559606387,0.059375,29,0.23583279166666665,0.005048391423506163,4.313908505292025e-06,33.81833333333334,0.03426206194742082,5.343751449585435e-05,87.39899999999999,1.3899001163153182,5.8799999999999955,-0.0013153128568014498
S033,14048.0,14077.984375,W,-0.5455364583333338,86.6458316115075,-418.12,309.06,727.1800000000001,16.42,37.71431048320417,1109.375,1121.0286458333333,0.5811482512496752,0.2870750936166354,0.2866363083489056,65.20336664057427,0.30811859434434163,66.007575322837,0.290625,117,0.23956836666666667,0.0012730711418542976,1.603779948942033e-06,33.89099999999999,0.0207123151772077,2.3784728674242413e-05,72.59099999999998,4.469810846109711,14.25,-0.00773218959749067
S033,14078.0,14107.984375,N1,0.8505260416666666,93.51705198777225,-255.72,421.04,676.76,24.365000000000002,67.78837461397192,1156.25,1168.3024088541667,0.616765194831514,0.20912350152216008,0.3673998351780916,65.28495609431941,0.3315485325752441,66.23443213314356,0.026041666666666668,23,0.24249257500000004,0.0011632578007654511,1.276100823595062e-06,33.940000000000005,0.01693123346560136,2.1736117007411586e-05,59.90333333333333,5.2897525672021946,14.550000000000004,-0.009412155330988315
S033,14108.0,14137.984375,N2,-1.5636145833333335,97.97776447552927,-257.78,208.78,466.55999999999995,25.03,38.6467095041819,1171.875,1183.2194010416667,0.581361996378619,0.07216126567549164,0.4746149298086,65.19174986442418,0.31010688643805173,66.007575322837,0.32708333333333334,184,0.2446589916666667,0.0012692161589988914,1.5969207890952713e-06,33.984666666666676,0.01564892612574121,1.9791672035502528e-05,53.11466666666667,0.16435192592590964,0.5800000000000054,-0.00024437506629097983
S033,14138.0,14167.984375,N2,1.2166093749999998,115.82303413466559,-419.35,543.56,962.91,19.68,31.006947629291695,1250.0,1238.5335286458333,0.6027200713225005,0.11149240133549711,0.5050429282496688,65.14666214828019,0.3160869150070816,66.007575322837,0.26875,146,0.24653749999999997,0.000859320923753172,-1.0007815214793693e-08,34.035666666666664,0.020442330808615312,2.538195132973817e-05,54.27400000000001,1.6353523575466342,4.490000000000002,0.00283479243565333
S033,14168.0,14197.984375,W,-0.38535937499999967,168.00586078466384,-1100.48,873.11,1973.5900000000001,7.585,15.365719079751184,1234.375,1230.0048828125,3.897593185401587,1.1519114360909968,4.481805303227893,65.05905383410885,0.5652558805758755,71.58910531638176,0.022916666666666665,17,0.2440721166666667,0.002056197206752206,-4.056389989255116e-07,34.064,0.018726095873585823,2.354167305275656e-05,57.23966666666667,0.3546687030016729,1.1199999999999974,0.00042649317124923307
S033,14198.0,14227.984375,N1,0.6074479166666678,148.98274919589193,-694.18,732.97,1427.15,12.530000000000001,41.67519799948044,1078.125,1087.01171875,13.092638510236284,14.67771656281262,22.181995698307272,64.99216273869926,3.572031291356777,101.07917688624102,0.040625,15,0.22015472499999997,0.015304756292278612,-2.491720489290498e-05,34.077333333333335,0.012092238098146593,-1.1597225368172755e-05,57.99333333333334,0.4446071924244535,1.4699999999999989,0.0007329863099463716
S033,14228.0,14257.984375,N2,-0.5291354166666669,35.66833348250465,-202.46,123.41,325.87,0.88,99.04248323854192,1234.375,1222.2005208333333,0.032258047015004204,0.07198059875565237,0.439992897669951,64.81346420427892,0.09277844931644076,65.92419889539804,0.265625,167,0.204338075,0.0015407847900907473,-2.1537703325114796e-06,34.07933333333334,0.009977753031398738,5.972223842292557e-06,59.86466666666667,0.57008615333318,1.7000000000000028,-0.0002175000590006663
S033,14258.0,14287.984375,W,-0.044619791666666644,13.37467111204764,-61.13,39.51,100.64,2.075,47.83694227739838,1234.375,1208.4798177083333,0.05589199343873463,0.07880950133074056,0.48198334277061206,64.83027635279733,0.11113664230167761,65.92419889539804,0.36041666666666666,200,0.2017552,0.0012908173934888466,-1.2843119803363693e-06,34.110666666666674,0.0174992063312089,1.9513894182371235e-05,55.793,2.5287390138169656,7.18,-0.0044681609342884475
S033,14288.0,14317.984375,W,0.437135416666667,139.3689617018677,-813.4,767.26,1580.6599999999999,6.365,84.57384226938112,1265.625,1212.4755859375,23.576759887033532,6.63173105386771,12.917943107293201,65.07315754029187,4.8648185375223765,133.6899397860587,0.036458333333333336,10,0.20010091666666666,0.0035461662152793823,4.4106431235468585e-06,34.158666666666655,0.014544949486180143,1.902778293939288e-05,57.809666666666665,5.625974572364232,15.29,0.009961148535467812
