participant_id,window_start_time,window_end_time,sleep_stage,BVP_mean,BVP_std,BVP_min,BVP_max,BVP_range,BVP_median,SDNN,median_nni,IBI_mean,x_std,y_std,z_std,mag_mean,mag_std,mag_max,movement_density,burst_count,EDA_mean,EDA_std,EDA_trend,TEMP_mean,TEMP_std,TEMP_slope,HR_mean,HR_std,HR_range,HR_trend
S040,8893.0,8922.984375,W,0.7093593749999997,63.438897437449086,-340.65,649.25,989.9,-0.58,0.0,640.625,640.625,3.18086455316091,5.093794627445949,3.467057113178505,64.61341343768719,1.0851899667055251,76.47875521999558,0.028125,15,0.07992629166666668,0.00229898408141449,-1.2713586348086601e-06,31.094666666666665,0.01431394036905562,-1.3541670340079555e-05,65.40166666666666,0.8895882318366296,3.010000000000005,0.0010535766746898525
S040,8923.0,8952.984375,W,-0.3851562499999994,187.92046410836886,-1498.41,783.15,2281.56,4.125,131.68601219890994,640.625,706.2174479166666,17.907063317771193,16.936923389887863,28.66023842352076,65.37831823602161,5.752670072480893,139.41305534274758,0.058333333333333334,17,0.061940633333333335,0.010554124657318684,-1.0509398250162283e-05,31.073333333333327,0.011642832797715073,6.944446328246089e-08,68.12133333333334,1.5151121703982466,4.449999999999989,0.0022080561545291203
S040,8953.0,8982.984375,W,0.08740624999999988,61.548806055147224,-777.83,428.66,1206.49,1.9249999999999998,74.20417865686889,875.0,919.8893229166666,2.189889320119855,1.2217360144028204,2.183352963890757,65.08801372286523,0.5385656370786612,67.468511173732,0.16041666666666668,99,0.07024490000000001,0.0026659095333487963,3.5006402725261154e-06,31.06066666666667,0.014360439485691705,-9.166669153284622e-06,67.80300000000001,0.7374693213958108,2.839999999999989,-0.0008982988547902664
S040,8983.0,9012.984375,W,-0.35515104166666656,21.89288544011166,-104.21,69.11,173.32,4.88,74.73051567763648,1062.5,1056.0465494791667,1.719563885581813,1.5158877206433274,4.241540677361038,65.14956884682155,0.4297915075057836,68.19824044651006,0.020833333333333332,16,0.07621166666666665,0.0038689639921072193,6.229207418947327e-06,31.041999999999998,0.011075498483890531,-6.111112768856413e-06,61.55566666666667,3.0659992208450118,8.109999999999992,-0.005377675069898835
S040,9013.0,9042.984375,W,0.2816145833333335,21.590802480874135,-50.92,36.18,87.1,6.545,79.83459161338887,1109.375,1086.474609375,0.30000000000000004,0.0,0.2787621447279622,65.23239291227011,0.26124370336472796,65.76473218982953,0.0020833333333333333,2,0.08365127500000001,0.0020075525894419294,2.304809001955565e-06,31.02533333333333,0.019102065042525682,-1.60416710182482e-05,56.905,0.6685942965157071,1.8500000000000014,-0.0011555211467885052
S040,9043.0,9072.984375,W,0.034104166666666644,23.651576364166147,-81.1,63.62,144.72,4.67,109.4820252809642,1062.5,1078.4423828125,0.38378031005887847,0.8508057608575139,1.062229847191223,65.11970087998095,0.38402339573901767,68.58571279792899,0.016666666666666666,12,0.08471863333333333,0.0017323062274192615,-1.4513458798138822e-07,31.004,0.014742229591665183,-9.375002543132963e-06,55.91,0.11630419883506604,0.3999999999999986,5.298612548451794e-05
S040,9073.0,9102.984375,W,-1.039390625,40.678913766244776,-247.08,166.48,413.56,7.3,48.984768676798275,1078.125,1077.3681640625,10.51121626253158,5.592118302519627,5.531864372659547,65.16487476145866,4.506654042273532,127.7614965472775,0.0375,17,0.08925516666666668,0.02043639079286969,9.667924931620263e-06,30.98133333333334,0.014313940369056333,-1.1319447515041193e-05,55.968666666666664,0.15587887035202144,0.480000000000004,0.00019194449651272188
S040,9103.0,9132.984375,W,0.9457239583333336,55.9302724101333,-401.13,312.12,713.25,3.815,81.67934564208473,1078.125,1061.9873046875,5.23933937470492,6.402744637176221,9.427775009155866,64.74848268004818,2.0533587845692125,82.37718130647589,0.035416666666666666,9,0.13032821666666666,0.0207134323987211,-3.0937363427019157e-05,30.975333333333335,0.014544949486180923,1.4861115142446517e-05,59.483333333333334,1.6122889181395357,4.899999999999999,0.002633681269987323
S040,9133.0,9162.984375,W,0.033723958333333984,167.93089211766315,-996.59,810.58,1807.17,2.8499999999999996,31.92193521352981,1062.5,1056.0302734375,8.345313718950795,17.108115884669004,19.78304022529286,65.09843086183042,2.837716099404204,93.75499986667377,0.057291666666666664,27,0.07353253333333333,0.005803202701861179,3.5847739759043996e-06,30.997333333333337,0.015902480589169897,1.604167101824963e-05,60.99966666666667,1.1706165991571378,4.619999999999997,0.0015850351521905254
S040,9163.0,9192.984375,W,-0.12296874999999995,38.95166047138672,-259.38,166.22,425.6,0.585,21.212545497478082,875.0,878.3121744791666,3.860554250786264,1.0701516758735652,0.8087627725249366,65.07254991681853,0.5974925297952143,69.5197813575388,0.08020833333333334,56,0.10058003333333332,0.005451859089542045,7.992218313861303e-06,31.025333333333325,0.021715329966536367,2.909723011535084e-05,65.94566666666667,0.28634109419051706,1.4500000000000028,0.0002292014510637639
S040,9193.0,9222.984375,W,-0.00816666666666664,17.545228238200707,-130.88,92.62,223.5,1.605,137.85745583808603,875.0,994.3603515625,0.7927562403395019,1.3684677537507253,0.5380649485785977,65.13942531973937,0.37646692740411936,67.7126280689208,0.058333333333333334,42,0.10655759999999999,0.0024245705166070133,8.027441413693966e-07,31.053333333333335,0.016397831834998107,1.31250035603848e-05,67.652,1.2131540160534733,4.150000000000006,0.00044125011969675784
S040,9223.0,9252.984375,W,0.4938802083333339,111.66458239968512,-883.82,616.28,1500.1,2.6950000000000003,0.0,1140.625,1140.625,7.342650331378234,2.9847949093768014,1.397727259895705,65.04595563996808,0.9616114339854112,70.19971509913698,0.08229166666666667,54,0.08631978333333334,0.013990206340021898,1.9843981077468823e-05,31.106,0.01818424226264742,1.9305560792523674e-05,61.67999999999999,1.1094563233103563,4.100000000000001,-0.0003522917622319226
S040,9253.0,9282.984375,W,-0.40894270833333324,25.579456905901743,-130.44,128.04,258.48,0.09,0.0,1140.625,1140.625,0.6140569779932659,1.1967834313681076,0.7131203135496998,65.32984017879961,0.4994819441189683,68.60029154456998,0.034375,20,0.10323783333333332,0.0019162866797243277,7.396877006531296e-07,31.140666666666664,0.012364824660661237,1.69444490409206e-05,62.57666666666667,1.0018893263341129,2.8700000000000045,-0.0014050698255940277
S040,9283.0,9312.984375,W,-0.4206458333333335,125.7992259751111,-640.61,938.17,1578.78,2.76,0.0,1140.625,1140.625,1.053167757951642,1.6500128234981488,0.6446216792623407,65.30952553952596,0.45327379732129386,69.32532004974806,0.051041666666666666,36,0.09126188333333334,0.005032897500749996,-4.095215086592637e-06,31.162000000000003,0.013266499161422888,8.611113447025922e-06,61.75333333333334,0.4405552052681812,1.2199999999999989,-0.0006746529607891067
S040,9313.0,9342.984375,W,0.43772916666666667,45.33321486216425,-329.78,378.96,708.74,1.6549999999999998,326.19728542695,406.25,647.5911458333334,0.42425895361467886,0.09636964965693297,0.11178398687746927,65.36284981389902,0.14772453761263563,67.20863039818622,0.24791666666666667,149,0.089671475,0.0018307678988268828,-1.0583646534192317e-06,31.169333333333338,0.013148721948878284,1.368055926664572e-05,62.989333333333335,1.5290496685487,3.980000000000004,0.002465972891160181
S040,9343.0,9372.984375,W,0.04657812500000039,68.18101585736937,-564.13,305.67,869.8,3.41,0.0,796.875,796.875,0.3508360550171547,0.0,0.10663227798529547,65.50096368381386,0.12831533436619594,66.49060083951716,0.0010416666666666667,1,0.08941534166666668,0.0015368847522170355,8.549405530980212e-07,31.186000000000003,0.012000000000000099,-2.500000678168794e-06,64.42966666666666,0.3378311544083652,1.0999999999999943,0.00023697923095139926
S040,9373.0,9402.984375,W,-0.06470833333333322,19.042362806886576,-58.47,111.31,169.78,2.09,127.98375327553937,796.875,802.4983723958334,0.48439068074976654,0.09090593428863095,0.06441510347391795,65.45268578709491,0.13341010390708644,65.76473218982953,0.003125,3,0.08958616666666666,0.0014003481372699977,-3.846863022695038e-07,31.189333333333334,0.012092238098144446,-4.930556893054606e-06,64.342,0.5295998489425764,1.5800000000000054,-0.0004753473511684436
S040,9403.0,9432.984375,W,-0.14500520833333325,55.43864600562926,-314.77,511.49,826.26,0.925,31.63538341250413,1000.0,1014.2252604166666,0.5704673020501118,0.5524527066234317,0.21721684953571677,65.43815130263269,0.24026879479093716,67.43886120034946,0.07291666666666667,58,0.09464540833333332,0.0022430359132800106,2.9655036256248983e-06,31.184000000000008,0.01171893055416438,1.736111582061482e-06,64.34566666666667,0.8722563970658067,3.1500000000000057,-0.0012765628462898348
S040,9433.0,9462.984375,W,0.7129843750000001,74.56001536653604,-436.69,586.76,1023.45,2.165,46.1577572712417,1078.125,1084.0250651041667,0.77034824263482,0.9757870532364574,0.5663056064798896,65.2539292958199,0.4167370747489422,69.33974329343886,0.12395833333333334,82,0.09805052499999999,0.003006180342124371,-1.3357562217220658e-06,31.192,0.013012814197295147,7.152779718093303e-06,59.974,1.1006622249052316,3.5799999999999983,-0.001983264426883797
S040,9463.0,9492.984375,W,-0.8390677083333337,71.557719452519,-501.89,508.34,1010.23,-1.625,0.0,1093.75,1093.75,0.43947841362422646,0.4983817127435779,0.27573882759173884,65.35157024019911,0.2783441640457752,70.83784299369935,0.009375,8,0.09533920833333333,0.0022092146790803034,-1.68660093495034e-06,31.209999999999994,0.008944271909998969,4.861112429772148e-06,59.90266666666666,1.7399002525687752,4.730000000000004,0.0028831257820979214
S040,9493.0,9522.984375,W,0.20993750000000005,18.895840111986566,-106.81,124.23,231.04000000000002,2.325,0.0,1093.75,1093.75,0.06441510347391793,0.0,0.0,65.33659463859256,0.015309003038471054,65.33758489567853,0.0,0,0.09551003333333334,0.0015406801200191494,6.908374269849781e-07,31.223333333333336,0.01299572579307834,1.0694447345498726e-05,65.91933333333333,1.8219713377425986,5.649999999999999,0.003245209213652672
S040,9523.0,9552.984375,W,0.14881249999999993,18.83139796507446,-121.77,131.88,253.64999999999998,1.59,24.066040252025314,1062.5,1061.6129557291667,0.045595976308831845,0.0,0.0,65.33708976713555,0.0108364172718685,65.33758489567853,0.0,0,0.09620389999999998,0.001581053632866387,3.40265717302983e-07,31.236,0.011718930554164382,9.930558249391673e-06,67.81,0.9935491935480592,2.780000000000001,-0.0016936115705326522
S040,9553.0,9582.984375,W,-2.4833125,89.33731446022341,-503.78,696.8,1200.58,-0.67,0.0,1062.5,1062.5,4.519954671716852,1.9517150466356221,1.2931963388570713,65.36077630341718,0.8063318266442875,72.06247289678588,0.030208333333333334,12,0.08876421666666667,0.014500887744194222,-1.9180631505162622e-05,31.246666666666663,0.010434983894998797,4.65277903992477e-06,64.75733333333334,1.6324887612340722,4.289999999999999,-0.0027194451821411637
S040,9583.0,9612.984375,W,2.731432291666666,49.47653421573326,-117.21,465.51,582.72,0.875,41.95209333784,1062.5,1045.166015625,0.194978186101819,0.06441510347391793,0.448589610767892,65.41286983235224,0.43803762670655905,65.79513659838392,0.0,0,0.05910139166666666,0.002597387855441929,-3.3432615405982916e-06,31.271333333333335,0.0206128331116533,3.0000008138022402e-05,60.708999999999996,1.3629486417323289,4.93,-0.0024464242747461677
S040,9613.0,9642.984375,W,-0.7361510416666661,46.705603159445474,-103.16,73.35,176.51,10.684999999999999,41.31496050713801,1046.875,1053.8004557291667,0.1592592172022985,0.045595976308831845,0.47624106874098493,65.37045126085084,0.46428470366769314,66.65583245298194,0.003125,3,0.05671040833333333,0.001779085333796711,-1.3122247483248524e-07,31.33333333333333,0.023142073276947332,3.743056570924812e-05,56.675,0.5769329828209395,2.3999999999999986,-0.0009749655422541072
S040,9643.0,9672.984375,W,0.5184583333333334,45.48684090868952,-128.27,99.34,227.61,11.415,53.316197995400294,1046.875,1048.8199869791667,0.1015291077584267,0.3476343040826092,0.48741875213265595,65.23309002937198,0.4811083244456309,65.7875368135941,0.0875,74,0.05906945833333333,0.0016535210607258341,1.254971911613474e-06,31.395333333333333,0.0206128331116533,3.111111955054175e-05,56.460666666666654,0.5125617577966142,1.4699999999999989,0.0007764585439611918
S040,9673.0,9702.984375,W,-0.06930729166666666,43.45645008091133,-92.38,74.59,166.97,11.57,39.37472789071601,1046.875,1045.8414713541667,0.0,0.2494438257849294,0.46837484987987976,65.27874215915368,0.4591536983752041,65.7875368135941,0.04375,41,0.06051031666666666,0.0016193766958479917,5.775314066654208e-07,31.436000000000003,0.01724335620850305,2.2013894860539585e-05,57.03933333333334,0.09885792274212961,0.3299999999999983,0.0001526389302948489
S040,9703.0,9732.984375,W,0.09211458333333335,43.294765742949465,-108.61,88.41,197.01999999999998,11.635,37.254149249240974,1046.875,1036.4583333333333,0.0,0.3476343040826092,0.46517619123176207,65.30213628294678,0.4595706874681828,65.7875368135941,0.096875,83,0.062250066666666666,0.002403594283336706,1.5723624056972672e-06,31.479333333333336,0.019136933459210116,2.750000745985495e-05,57.388,0.12660700349243403,0.4099999999999966,0.0002268750615437983
S040,9733.0,9762.984375,W,-0.2841770833333332,43.91963118927543,-89.57,70.53,160.1,10.969999999999999,46.40808398686156,1031.25,1045.1822916666667,0.13635890143294643,0.40309135303165317,0.46591736719675464,65.33074318863832,0.4657371435214857,65.88626564011653,0.003125,2,0.06389374166666667,0.0023627647100231026,6.985359967816835e-07,31.507333333333335,0.014360439485693134,1.8055560453441407e-05,57.48433333333333,0.05364595873771655,0.1599999999999966,9.375002543126048e-07
S040,9763.0,9792.984375,W,0.4467291666666666,60.57102298842367,-376.04,289.24,665.28,10.219999999999999,88.95351553206049,1015.625,1019.3440755208334,1.5663698605152476,0.6119434830022205,0.5580223014261069,65.33461851737998,0.48639646561624555,67.19374970932937,0.059375,37,0.05107455833333333,0.002908213044682918,1.8434199879068982e-06,31.535999999999994,0.011718930554164382,6.875001864963467e-06,58.06466666666666,0.32636108155776766,0.8800000000000026,0.00047680568489737564
S040,9793.0,9822.984375,W,-0.44258333333333316,43.80389770510978,-90.78,71.34,162.12,12.004999999999999,41.76725009126114,1062.5,1052.587890625,0.0,0.39197129111142254,0.4506349205257203,65.49253737946538,0.4465675753232687,66.58077800686922,0.0010416666666666667,1,0.053326658333333325,0.00166714750645043,6.873931986201163e-07,31.55933333333333,0.013399834161494234,3.333334237558044e-06,58.005,0.07658328799418289,0.25,-0.00011267364167579228
S040,9823.0,9852.984375,W,0.42929687499999986,45.43865350983528,-100.61,69.24,169.85,14.42,37.18318625682798,1046.875,1048.33984375,0.0,0.37817521475574717,0.46393241957267395,65.45724065078112,0.45490444314723066,65.79513659838392,0.0,0,0.053508049999999995,0.001457830167577828,-5.931221227002282e-07,31.57333333333333,0.01639783183499811,1.131944751504086e-05,57.01266666666666,0.4898362538191264,1.2700000000000031,-0.0008142363319868523
S040,9853.0,9882.984375,W,-0.5070052083333333,46.97870761423881,-127.53,92.91,220.44,12.395,36.72693039694219,1046.875,1046.97265625,0.35784850922639816,0.42682919267808084,0.4795107460271934,65.41630106102679,0.46687488663792165,66.06814663663572,0.034375,26,0.05389229999999999,0.001421812385654309,1.2678475661478831e-07,31.599333333333334,0.011234866364234906,9.166669153284622e-06,56.86866666666666,0.05992958831458476,0.25,9.590280379307941e-05
S040,9883.0,9912.984375,W,0.45195833333333346,44.586130417923656,-98.78,75.06,173.84,11.95,66.29955172044383,1078.125,1079.2724609375,0.09636964965693297,0.4955356249106168,0.4675911601554883,65.39951597076664,0.4679057484581705,65.92419889539804,0.004166666666666667,4,0.05388164166666665,0.0014443215523550215,3.3766827736227173e-07,31.627333333333336,0.014360439485691705,1.4444448362751526e-05,56.811,0.17334647386087915,0.5500000000000043,-0.0002826042433279766
S040,9913.0,9942.984375,W,0.11783854166666667,69.79734773020998,-513.91,333.54,847.45,11.315000000000001,49.49436958050321,1046.875,1058.2682291666667,1.5166766826592353,0.646894289835845,0.5537122196793405,65.4597480838386,0.5088033022561202,68.27151675479314,0.020833333333333332,12,0.05727600833333333,0.0039721435092735366,4.552871243725922e-06,31.64666666666666,0.012736648783028912,9.652780396262615e-06,56.04066666666667,0.1199425788543094,0.4299999999999997,-0.00015673615362851435
S040,9943.0,9972.984375,W,-0.6526875,39.924559944170674,-94.84,64.98,159.82,7.54,75.68052705410425,1046.875,1014.5100911458334,0.032258047015004204,0.03225804701500421,0.0,65.23791366430979,0.006115122684932038,65.30696746902278,0.0010416666666666667,1,0.06588991666666666,0.0021225383019054227,2.6609178225145995e-06,31.677333333333333,0.016719914938646496,2.0347227741761353e-05,57.797666666666665,0.8994430993058361,2.780000000000001,0.0015675351474433443
S040,9973.0,10002.984375,W,0.3115052083333331,43.836844717264924,-92.97,79.96,172.93,10.77,55.55563496213112,1062.5,1059.9202473958333,0.4550056757124636,0.1015291077584267,0.03225804701500421,65.22533136969624,0.04450895024717642,66.21933252457322,0.011458333333333333,10,0.06991406666666668,0.0021877530091143483,2.7419742681136786e-06,31.7,0.014375905768564911,1.6319448871377924e-05,58.98266666666667,0.036141696449146325,0.14999999999999858,1.3125003560383944e-05
S040,10003.0,10032.984375,W,-0.6716093749999998,50.66408037015635,-115.82,143.31,259.13,8.67,62.02452466472421,1062.5,1063.6067708333333,1.6378415541795313,0.8553117324825039,0.36292928364979804,65.19923158451557,0.3256288102099845,68.85491994040804,0.04583333333333333,27,0.07350039166666665,0.005288026984449293,4.192172795185762e-06,31.718666666666664,0.01431394036905562,9.027780226719673e-07,57.04633333333334,0.884056873484707,2.6300000000000026,-0.0014546184501460632
S040,10033.0,10062.984375,W,0.5288281250000008,78.02059258105916,-623.33,705.0,1328.33,1.875,90.46280439652807,1046.875,1028.8004557291667,0.49956578367840826,0.40024813267313736,0.3051638903933426,65.39835738486143,0.3056027300420497,67.3721010508059,0.003125,3,0.07430082499999999,0.0016503922547003787,-1.0296715032746042e-06,31.728666666666673,0.01359738536958047,-3.7500010172528002e-06,56.81633333333334,0.21915722413119018,0.6699999999999946,-0.00010704864014991354
S040,10063.0,10092.984375,W,0.008614583333333373,11.796776822213797,-30.0,22.01,52.010000000000005,2.505,49.3156804030313,1015.625,1036.8733723958333,0.0,0.0,0.09107288747664333,65.40021133765973,0.09050040211161488,66.40030120413611,0.0010416666666666667,1,0.07391655,0.0014974399812680312,3.7694237655771956e-07,31.723333333333336,0.011925695879998624,-5.972223842291498e-06,56.702,0.19860177911254143,0.5399999999999991,0.0003462500939263493
S040,10093.0,10122.984375,W,0.12282812500000002,12.725165939964228,-61.17,81.47,142.64,1.9049999999999998,77.14950882694966,1000.0,1028.90625,0.428497404941578,0.03225804701500421,0.14037013942312188,65.40621961759611,0.13836064513586127,66.43794096749237,0.005208333333333333,5,0.07255042499999999,0.0020962865606531465,-1.3909376603020997e-06,31.709999999999997,0.014605934866804117,-1.0833336272063644e-05,57.23433333333334,0.7399264978511193,2.0799999999999983,0.001137535030798349
S040,10123.0,10152.984375,W,0.050619791666666726,10.802149703165952,-26.72,21.87,48.59,1.88,83.89758413575296,984.375,996.1995442708334,0.3968408231128558,0.0,0.07216126567549165,65.41287068050947,0.07285374583189816,66.40030120413611,0.0020833333333333333,2,0.07164314166666667,0.0015239437013651628,-2.8600376681959834e-07,31.698666666666668,0.011175369742826569,-2.708334068015912e-06,58.74599999999999,0.04325120422215555,0.1699999999999946,4.8125013054744525e-05
S040,10153.0,10182.984375,W,-0.015156249999999993,13.53789929299419,-110.88,69.38,180.26,1.87,77.14930237447595,1078.125,1044.1487630208333,0.4030913530316532,0.032258047015004204,0.17918786211837995,65.42350216497276,0.1789724461301873,66.43794096749237,0.00625,4,0.07228349166666666,0.0014457570680894327,-1.584874561869164e-08,31.688,0.013012814197295492,8.263891130612986e-06,58.617,0.22039585598039946,1.019999999999996,0.00014878476258267144
S040,10183.0,10212.984375,W,-0.007859374999999972,9.820158229749048,-25.21,21.3,46.510000000000005,1.8250000000000002,44.08190862664594,1078.125,1058.3577473958333,0.0,0.0,0.09654963281764578,65.43739194261157,0.09588577772559896,66.43794096749237,0.0010416666666666667,1,0.07232618333333334,0.001555403077358262,2.3265370894469162e-07,31.694666666666667,0.01431394036905562,2.9861119211457473e-06,59.64366666666667,0.04833793081582647,0.19999999999999574,4.826390198129222e-06
S040,10213.0,10242.984375,W,0.005265624999999985,10.652911971433445,-34.31,28.53,62.84,1.94,58.87238212177277,1015.625,1036.7350260416667,0.04559597630883185,0.04559597630883184,0.14396119751130473,65.43400206874658,0.14331759814149583,66.43794096749237,0.005208333333333333,5,0.07226215833333333,0.0014592374835042735,-8.587914656009754e-08,31.701999999999998,0.011075498483890531,4.166667796947555e-06,59.06166666666666,0.8645194554715868,2.8299999999999983,-0.0014532295608804147
S040,10243.0,10272.984375,W,-0.07367187500000004,9.73499104961499,-22.8,18.49,41.29,2.105,54.62389926106886,1062.5,1054.39453125,0.0,0.045595976308831845,0.09677414104501263,65.4413232190974,0.09621330621429267,66.43794096749237,0.003125,3,0.073425525,0.0014807207871084264,3.0797382486269106e-07,31.72066666666667,0.013399834161494234,7.083335254810842e-06,56.407666666666664,0.2139888366766414,0.8200000000000003,-0.0003789237139007472
S040,10273.0,10302.984375,W,-0.02811458333333342,9.050861681319114,-21.98,17.97,39.95,1.24,55.81520486096206,1062.5,1036.2548828125,0.09636964965693297,0.26672362672915867,0.0911919526176637,65.43333621338823,0.09338264844811747,66.43794096749237,0.0020833333333333333,2,0.07391655,0.0015600414249307614,5.570999775119313e-07,31.740666666666666,0.016918103387265668,2.111111683786761e-05,56.59666666666667,0.42654685817882054,1.2000000000000028,0.0007593752059937095
S040,10303.0,10332.984375,W,-0.014421875000000013,10.100247267968484,-49.57,32.58,82.15,1.6,123.96320766193858,953.125,928.8167317708334,0.045595976308831845,0.28707509361663547,0.12894806771203154,65.42953023555643,0.1311417340539344,66.43794096749237,0.005208333333333333,5,0.07451430833333332,0.001478533523438193,7.244366114465636e-07,31.766000000000002,0.014966629547095447,9.722224859544295e-06,57.599000000000004,0.21229460662014055,0.6400000000000006,0.00038059038101952695
S040,10333.0,10362.984375,W,0.04133333333333331,9.64666789910151,-28.04,37.57,65.61,1.72,52.75236599935849,1093.75,1072.36328125,0.0,0.13928372696486196,0.12074350109035084,65.44059820712741,0.12068399499285631,66.43794096749237,0.00625,6,0.07531493333333332,0.0015731896089014683,5.807136991953384e-07,31.778666666666663,0.013349989596333572,1.0347225029086427e-05,57.70766666666667,0.08329399071294988,0.30000000000000426,-0.0001405903159153427
S040,10363.0,10392.984375,W,-0.026546874999999977,8.60300206825178,-20.2,17.28,37.480000000000004,1.33,49.85108983531952,1062.5,1052.6041666666667,0.0,0.05581428468591172,0.08523227047636098,65.43915029010121,0.08480945043149747,66.43794096749237,0.0010416666666666667,1,0.07594474999999999,0.0015476909373321268,8.25644755220474e-07,31.802666666666664,0.010934146311237585,8.819446836872326e-06,57.27266666666666,0.2620169629792867,0.75,-0.0004679167935972206
S040,10393.0,10422.984375,W,0.08973437500000007,8.780968778549438,-21.33,20.08,41.41,0.95,82.25234335537495,1078.125,1101.3509114583333,0.06441510347391793,0.10642856726723118,0.09126331714087296,65.44126664688747,0.09125779040625447,66.43794096749237,0.003125,3,0.07687347499999998,0.0013865588156926475,-1.8264262766998363e-07,31.827999999999992,0.014000000000000616,8.12500220404835e-06,56.51366666666667,0.18960455925132388,0.7800000000000011,-0.00032621536626935857
S040,10423.0,10452.984375,W,0.022395833333333334,8.305477684786267,-25.12,17.92,43.040000000000006,0.9,99.58896103656217,937.5,1026.7822265625,0.0,0.07880950133074056,0.05581428468591173,65.440908421998,0.05594554203058268,65.4446330878247,0.0,0,0.07624364999999998,0.0016453357795599046,-4.7259127403192154e-07,31.835333333333327,0.011469767022724677,1.1944447684584719e-05,55.32233333333333,0.3135036771005338,1.0800000000000054,-0.0005586459848757559
S040,10453.0,10482.984375,W,0.2867916666666664,62.32729338538827,-884.6,397.32,1281.92,2.415,93.05232340543536,1109.375,1087.0035807291667,1.1376025404026469,1.9061748619071304,0.7800901112033289,65.22263281530678,0.6768815551236951,78.5175139698144,0.028125,22,0.07579535,0.0034048060484409386,1.8552604859105051e-06,31.850666666666672,0.013148721948877992,4.930556893055371e-06,54.45766666666667,0.3212961596754965,1.1700000000000017,-0.0004748959621571073
S040,10483.0,10512.984375,W,-0.12146874999999989,76.99159687798365,-700.63,712.45,1413.08,4.25,28.12186211871614,1109.375,1110.7828776041667,2.492157621294247,1.3884693810891986,0.5180090089306684,65.191924759,0.3585682876099931,67.48333127521195,0.04895833333333333,33,0.08226376666666667,0.002390304425288869,-1.881036968597267e-06,31.875999999999994,0.015620499351813326,1.618055994481327e-05,53.95633333333333,0.10425875929095284,0.3299999999999983,0.00016184032167977433
S040,10513.0,10542.984375,W,-0.21385416666666698,47.29643443594593,-454.83,378.04,832.87,0.835,87.11310598673194,1109.375,1129.5817057291667,0.4249068014642217,0.06441510347391793,0.3754496725224597,65.34178548752129,0.3722489795153472,66.51315659326356,0.0020833333333333333,2,0.07859210833333333,0.0017473492438349477,1.194798501193164e-07,31.897333333333336,0.010934146311237585,5.486112599314281e-06,53.72,0.22519621074372717,0.8999999999999986,-0.00025784729216777686
S040,10543.0,10572.984375,W,-0.06726562499999995,7.826758014195705,-21.54,20.78,42.32,0.63,125.65845843152748,1125.0,1165.6575520833333,0.49997287252798905,0.1496378730654628,0.40907670429883936,65.30158303025947,0.40584735487818946,65.6505902486794,0.0,0,0.07889099999999999,0.0016797803279000527,-1.031311911705707e-06,31.907333333333334,0.014360439485691705,1.486111514244628e-05,53.49066666666666,0.08414009481546537,0.25,-1.118055858847494e-05
S040,10573.0,10602.984375,W,-0.005781249999999997,8.199322400488251,-22.58,20.63,43.209999999999994,1.315,85.30076040463429,1062.5,1000.5615234375,0.0,0.3388075878684275,0.43886196735293537,65.27988229253673,0.4383790664280593,65.6505902486794,0.0,0,0.07831459166666667,0.0015577976521135735,4.636756900161916e-07,31.93066666666667,0.013148721948877068,1.0763891808781184e-05,54.039,0.30773744220249377,1.259999999999998,0.0005296181992236867
S040,10603.0,10632.984375,W,0.05871354166666671,7.890354268373609,-25.38,22.55,47.93,0.81,52.497523390670196,1062.5,1049.5198567708333,0.0,0.39279397828250884,0.45734267938700945,65.25029278167028,0.4568007293193567,65.6505902486794,0.0,0,0.07897641666666666,0.001584872253439447,-4.447770303757139e-07,31.928666666666672,0.01359738536958047,-5.8333349157265775e-06,56.013,0.5522991339241204,1.9299999999999997,0.0009906599909559443
S040,10633.0,10662.984375,W,-0.20671354166666636,62.6354060132029,-828.65,318.4,1147.05,1.455,75.05772806118873,1109.375,1064.35546875,2.8574638801547234,1.3579430516767712,0.5803158562847957,65.13121385434023,0.5371438604930613,71.11258679024411,0.07395833333333333,54,0.066455725,0.007536355942985642,5.661720502853869e-06,31.94,0.016124515496596756,1.5625004238553336e-05,57.45233333333333,0.3681909226957607,1.2700000000000031,0.0006538543440360091
S040,10663.0,10692.984375,W,0.3646041666666664,36.67401188099664,-90.83,111.85,202.68,9.115,59.40068453456046,1093.75,1080.2408854166667,0.4007791348493027,0.03225804701500421,0.19086960626884056,65.08072999326103,0.18719475843793432,67.02984409947557,0.015625,14,0.07543237499999998,0.0018038516941187256,1.7852333401783139e-06,31.968000000000004,0.016613247725835795,1.4930559605728741e-05,57.74300000000001,0.4857375834748634,1.4099999999999966,-0.0008619099560302613
S040,10693.0,10722.984375,W,-0.07827083333333322,36.229759115286,-104.42,83.54,187.96,8.485,63.94308896381427,1062.5,1070.6705729166667,0.05581428468591172,0.0,0.12031137264984093,65.0715923172738,0.1179616936884991,66.04543890383347,0.0125,12,0.077257775,0.0017407452497062866,1.3340973671054062e-06,31.99366666666667,0.011967548714011402,9.826391554468855e-06,56.50266666666666,0.36656907792241367,1.2100000000000009,-0.0006126390550778679
S040,10723.0,10752.984375,W,-0.1992708333333332,37.48440913941176,-82.02,66.57,148.58999999999997,11.059999999999999,91.47981000485966,1093.75,1119.7835286458333,0.0,0.0,0.08533405557962581,65.06458517486789,0.08395051534183917,66.04543890383347,0.005208333333333333,5,0.08001175833333332,0.001641026528303923,1.2598929198928272e-06,32.022666666666666,0.019988885800752514,2.0763894521454885e-05,55.23333333333334,0.1437204075820672,0.6299999999999955,-0.00023333339662906717
S040,10753.0,10782.984375,W,0.04938020833333348,39.71067096539806,-104.12,76.71,180.82999999999998,10.815000000000001,62.90592141846524,1078.125,1063.5498046875,0.08507936450096987,0.0,0.11149240133549708,65.07021279891687,0.11044442194391638,66.11353870426238,0.010416666666666666,7,0.08115376666666665,0.0015301223248122633,-1.6397921114887455e-07,32.068000000000005,0.015790292376437344,2.048611666832783e-05,54.66499999999999,0.1022007827758678,0.38000000000000256,-4.885417991921034e-05
S040,10783.0,10812.984375,W,0.30051562499999984,42.49394733977277,-173.16,116.4,289.56,6.19,72.77564034910642,1078.125,1036.8570963541667,0.5681420361704359,2.0836156058773305,0.8199736403283543,65.26288010682842,0.5156114445382015,68.7749954561976,0.075,54,0.07548569166666666,0.002985597586178892,-2.7850812676544233e-06,32.094666666666676,0.01839081896551162,2.145833915428012e-05,55.19533333333333,0.3975485994050141,1.4399999999999977,0.0006931251880222393
S040,10813.0,10842.984375,W,-0.14154687500000007,41.109987238921164,-103.99,61.85,165.84,11.559999999999999,42.83830590458609,1062.5,1070.2555338541667,0.11110243021644485,0.431803187870997,0.4007791348493027,65.3539382378108,0.4021382122423257,65.7875368135941,0.003125,3,0.0776741,0.001732378520993609,1.3616188589460897e-06,32.12266666666667,0.015040685563571335,1.270833678069124e-05,56.42766666666667,0.10506135773389226,0.46999999999999886,0.00015010420738503964
S040,10843.0,10872.984375,W,-0.9611510416666665,46.85226524648714,-150.73,98.99,249.71999999999997,6.795,94.13747188621895,1062.5,1058.349609375,0.48015184049481224,0.29838795763885795,0.46902306861058435,65.3559371272454,0.46032476167717984,69.60603422117941,0.010416666666666666,7,0.07940335833333334,0.0019508835041071087,1.8707177383674445e-06,32.13699999999999,0.01594783161853975,1.1076391893552629e-05,56.537000000000006,0.15790609023509283,0.5,0.00011218753043281582
S040,10873.0,10902.984375,W,-1.3035989583333338,49.09241908142487,-335.81,200.45,536.26,10.010000000000002,40.64887152415721,1031.25,1033.5205078125,0.7103150892679013,1.4011617048948666,0.4256072051264588,65.48380293847745,0.41418922566057653,69.31810730249349,0.008333333333333333,7,0.07956329999999999,0.004104090968371275,-4.191518498133274e-06,32.14466666666666,0.011756794725696594,9.166669153282994e-06,56.61566666666667,0.21853578400090234,0.6200000000000045,0.0003866320493251004
S040,10903.0,10932.984375,W,2.246755208333333,28.720154487645843,-193.86,270.31,464.17,0.325,44.47791640514487,1000.0,1029.4270833333333,0.06441510347391793,0.29720193985833193,0.48274816408822896,65.15437607272693,0.4786998784929815,65.89385403814228,0.3697916666666667,216,0.07060792499999999,0.0016581990288789211,-8.065855052586539e-07,32.15766666666665,0.007608474807008761,-1.0763891808784207e-06,56.68433333333334,0.4322243501804228,1.1199999999999974,-0.0006925349100843401
S040,10933.0,10962.984375,W,-0.10117187500000009,9.524395394833503,-22.4,17.31,39.709999999999994,1.435,88.07655354034213,1125.0,1117.9606119791667,0.0,0.1428261375083551,0.48101883878273294,65.13850298729629,0.47588889528972084,65.89385403814228,0.36354166666666665,235,0.06981813333333334,0.0015298156421245299,-4.925378940261208e-07,32.15099999999999,0.011357816691598892,-6.562501780191604e-06,55.90133333333333,0.23343426388505156,0.6900000000000048,-0.0004159028905986588
S040,10963.0,10992.984375,W,0.39189062500000005,48.37091748943044,-694.14,223.48,917.62,2.25,92.64859192714862,1062.5,1063.0696614583333,3.2993868788066774,1.742532430353402,0.5565571483459717,65.17783014065243,0.5307618639847029,67.86751800382861,0.33229166666666665,191,0.07203831666666666,0.0046269530200470175,5.826263733252965e-06,32.14133333333333,0.013097921802924196,-1.0138891639238333e-05,56.182,0.4505359771057879,1.2199999999999989,0.0007942363265615042
S040,10993.0,11022.984375,W,-0.3757552083333334,9.37719797858936,-58.53,26.52,85.05,0.875,131.60832628604246,1015.625,992.7001953125,0.0,0.0,0.18483053424390924,65.34117664532997,0.1808810026457005,65.37583651472461,0.0,0,0.08251985833333333,0.0017974742014645311,2.2051188707462203e-06,32.13466666666666,0.013349989596332951,8.263891130613306e-06,56.94700000000001,0.10948820332194065,0.2700000000000031,0.0001809375490824509
S040,11023.0,11052.984375,W,0.0019270833333333126,9.120025638150175,-25.36,19.11,44.47,1.6749999999999998,65.55873562980432,1000.0,986.8082682291666,0.0,0.0,0.15612494995995993,65.35137072456368,0.1527888105841905,65.37583651472461,0.0,0,0.08563665833333335,0.0018757441078846252,1.7891530461027136e-06,32.14433333333333,0.01145522685162411,5.3125014411071895e-06,56.98266666666666,0.06752448115724749,0.18999999999999773,-3.0000008138022127e-05
S040,11053.0,11082.984375,W,0.06467187500000006,9.982733301214017,-22.49,20.63,43.12,1.645,47.93143044953692,1046.875,1048.9339192708333,0.0,0.0,0.1356408400888169,65.35748717210392,0.13274241323456462,65.37583651472461,0.0,0,0.08757948333333335,0.0014064667372730704,9.829555617826498e-07,32.14366666666666,0.010796089827132285,5.590279294236976e-06,57.294999999999995,0.08697700845625811,0.3299999999999983,8.940974647616788e-05
S040,11083.0,11112.984375,W,-0.041593749999999964,9.52653473317874,-26.81,43.24,70.05,1.1749999999999998,84.95062832506729,1046.875,1023.2503255208334,1.4918001424220855,0.2892083903616137,0.12849286620924397,65.31525765219502,0.14227729045408996,66.35510530471637,0.003125,2,0.08400376666666666,0.004020122286144482,-5.950392239147199e-06,32.15166666666666,0.008595864638817488,-1.7708338137028654e-06,57.062000000000005,0.16585937818927607,0.480000000000004,-0.00028479174392137096
S040,11113.0,11142.984375,W,0.031119791666666653,7.858589816393055,-21.58,18.82,40.4,0.81,127.47837639576326,781.25,876.9856770833334,0.0,0.3410547747430022,0.0,65.28120978577643,0.06537511335801646,65.30696746902278,0.0,0,0.08113240833333334,0.0015056432982606537,-2.332444209104832e-08,32.15366666666666,0.007951240294582794,-5.381945904389637e-06,57.43966666666667,0.1958142543897716,0.6700000000000017,0.0003207986981333271
S040,11143.0,11172.984375,W,-0.04930729166666665,6.898747364358148,-16.21,16.04,32.25,1.15,108.66563370911891,1046.875,1008.0322265625,0.0,0.25654623798103576,0.0,65.29338977552858,0.04917608733735226,65.30696746902278,0.0,0,0.08161269166666665,0.0015597003120035226,1.0086107336726164e-06,32.158333333333324,0.01157103663847266,5.8680571473683436e-06,58.162000000000006,0.3280690984127175,0.8999999999999986,0.0005832640471093875
S040,11173.0,11202.984375,W,0.019479166666666634,7.558452190786108,-20.86,16.56,37.42,1.27,51.62546699400967,1046.875,1013.9485677083334,0.0,0.2068462551362458,0.0,65.29838157460732,0.03964934191993957,65.30696746902278,0.0,0,0.08281869166666667,0.001458822783364685,5.369942862940232e-07,32.15966666666665,0.00657436097443883,2.4305562148836627e-07,58.37833333333333,0.06568020165079431,0.23000000000000398,-6.593751788669825e-05
S040,11203.0,11232.984375,W,0.02093750000000004,15.586654436309516,-139.94,87.3,227.24,0.35,310.1391108272397,1062.5,941.1783854166666,0.32595346250994517,0.48858053327982687,0.3262246557844251,65.34093511674554,0.3140961677323327,66.2872536767062,0.0020833333333333333,1,0.08396073333333334,0.0016659689259473664,1.865221860140482e-07,32.15999999999999,0.009999999999999905,-6.250001695421012e-06,58.18866666666666,0.23304839745330905,0.9299999999999997,-2.6250007120769477e-05
S040,11233.0,11262.984375,W,-0.20975000000000013,94.45482888628564,-548.41,704.81,1253.2199999999998,0.945,106.25550966376068,796.875,869.9951171875,3.4219877264537346,0.5756553858550173,0.774571454095747,65.31397737004275,0.7187849276463645,71.48426400264607,0.017708333333333333,12,0.0791255,0.00533458043179905,-6.740616845870457e-06,32.164333333333325,0.010857664983269136,1.0069447175956532e-06,59.093333333333334,0.20662902883078996,0.7199999999999989,0.0003511112063561208
S040,11263.0,11292.984375,W,0.3736197916666667,24.01102390854442,-56.99,39.88,96.87,6.07,76.33412179997782,1015.625,1007.3893229166666,0.2999547853658763,0.42555111326373,0.4952508833914383,65.21995570680541,0.48742787740895127,65.88626564011653,0.12395833333333334,96,0.0786241,0.0021539619982720226,2.4820497184379675e-06,32.15933333333332,0.009285592184789148,-4.652779039924512e-06,59.484666666666676,0.1610120768417353,0.6900000000000048,-1.666667118778985e-06
S040,11293.0,11322.984375,W,-0.30056250000000007,27.045736384106714,-123.96,50.42,174.38,6.32,43.17478604833401,1015.625,1021.826171875,0.04559597630883185,0.49145365265539875,0.3754496725224597,65.41780107857164,0.34888208767158674,66.76076692189807,0.051041666666666666,36,0.07608348333333333,0.002465581189034794,-2.7095085475012354e-06,32.17233333333333,0.01430229196861805,4.340278955154216e-06,58.928333333333335,0.09668103341515467,0.38000000000000256,-0.00011336808630861693
S040,11323.0,11352.984375,W,-0.1281354166666667,20.7907817078466,-49.58,34.74,84.32,4.015,50.67944812909246,1046.875,1040.4541015625,0.34638510200193207,0.4918067861778196,0.12827311899051785,65.4952019156583,0.16578407789808292,67.17886572427373,0.005208333333333333,3,0.07738566666666664,0.0067086167989799175,6.686025251200426e-06,32.181333333333335,0.013097921802926677,7.50000203450634e-06,58.779,0.17525885617185372,0.6599999999999966,-0.0001828125495910779
S040,11353.0,11382.984375,W,1.4645937500000012,262.3085159858313,-966.99,1506.55,2473.54,-1.9049999999999998,9.513328950342293,1062.5,1060.0748697916667,30.124909070142852,17.36834592309143,22.476154030438572,65.16385315544545,5.221784522766827,130.3878828726044,0.03854166666666667,16,0.09748463333333332,0.021302745921176976,-2.708839753917034e-05,32.19466666666666,0.018024674446127913,1.0972225198628957e-05,57.962,0.6387873929041915,2.6500000000000057,0.00024597228894647624
S040,11383.0,11412.984375,W,0.33366666666666706,204.15646405262856,-1093.06,787.11,1880.17,3.5300000000000002,87.66550880653814,859.375,889.0787760416666,17.55219151796531,15.502737073524575,25.06354415599921,65.25271964611707,5.586560848910581,123.12595177297108,0.06145833333333333,20,0.08404625,0.013679469117531571,1.0031141610010203e-05,32.18666666666666,0.01795054935711628,-6.666668475116509e-06,64.00766666666667,1.548230567095511,6.490000000000002,0.002576979865717193
S040,11413.0,11442.984375,W,-1.4360729166666668,37.46805660040763,-247.36,237.63,484.99,1.4049999999999998,162.98190313219428,1187.5,1114.3961588541667,8.207097979691964,2.0739695818379036,15.642034845993148,65.52630644368362,0.5134009301993313,72.39475119095306,0.014583333333333334,7,0.08451583333333333,0.003354146414845693,-1.8276745409273383e-06,32.187999999999995,0.016613247725837176,1.1111114125193732e-06,66.674,1.4247937862488491,5.149999999999999,-0.001957361642079436
S040,11443.0,11472.984375,W,-0.12666666666666673,9.347705775423663,-26.51,32.03,58.540000000000006,2.0149999999999997,128.83536576588006,1140.625,1098.9990234375,0.19982631347136334,0.20219874281810513,0.032258047015004204,65.63815146695529,0.14342942875689044,65.67343450741707,0.0,0,0.08495345833333333,0.0014243592998013361,7.477990309784695e-07,32.19166666666667,0.016749792701869083,-8.576391215384292e-06,56.55133333333333,2.533643928328437,9.949999999999996,-0.004443334538664967
S040,11473.0,11502.984375,W,0.11517187500000002,9.80223162684357,-23.57,19.88,43.45,1.71,45.81235275372106,1171.875,1160.7828776041667,0.33767356648100244,0.4305801964275128,0.0,65.55012705553435,0.24067890775303613,65.67343450741707,0.0,0,0.085519225,0.0015583671981837268,4.150463365468586e-07,32.192,0.014696938456699627,-6.250001695421703e-06,50.476,0.4163380037101265,1.6799999999999997,-0.0004177084466440007
S040,11503.0,11532.984375,W,2.05746875,82.20032404100935,-1019.75,554.03,1573.78,2.6500000000000004,50.85546499009546,1140.625,1169.3115234375,6.083641455524396,10.324219771434976,27.49514319485454,65.48093235589594,3.6329794204270653,90.64766957842876,0.059375,20,0.08522046666666666,0.007705086947306666,-2.5408926163445696e-06,32.196,0.01976528944049793,-2.638889604732612e-06,50.516,0.29384349575922253,1.4600000000000009,0.00016027782125592019
S040,11533.0,11562.984375,W,-2.953619791666667,179.6297814863811,-733.61,841.59,1575.2,3.74,0.0,1140.625,1140.625,43.24347072584099,31.89968808352817,24.467543672370855,66.4251108820812,16.076297852321325,152.82342752340034,0.10208333333333333,37,0.083010875,0.036616693272687004,2.4315361413672244e-05,32.21666666666667,0.025991451586156865,3.7986121415505456e-05,60.28200000000001,5.197214895178636,17.480000000000004,0.009351321981152882
S040,11563.0,11592.984375,W,2.660307291666665,297.79298696455254,-1671.51,2183.13,3854.6400000000003,7.895,0.0,1140.625,1140.625,40.66834221061541,16.099993395228115,31.67775352450636,64.83388623410005,6.546270244735176,107.24271537032247,0.07708333333333334,29,0.080470575,0.00838979103897757,-8.369559779068948e-06,32.269333333333336,0.0182452429112058,1.9513894182371926e-05,78.54166666666667,4.061205964844541,12.579999999999998,0.007114272763203331
S040,11593.0,11622.984375,W,-1.8286406249999998,199.67507279060484,-1099.43,661.48,1760.91,6.58,0.0,1140.625,1140.625,32.75711092224439,16.428064168297748,23.907487690364505,65.05611832687718,7.775054227422098,123.18279100588686,0.09270833333333334,39,0.12887757500000002,0.0761436870950423,0.00010827124790344179,32.29666666666667,0.013984117975602284,3.1944453109931513e-06,79.44966666666666,2.432883725586207,7.469999999999999,-0.004333438675520474
S040,11623.0,11652.984375,W,-0.1178697916666667,38.898037304461724,-125.14,63.86,189.0,8.46,65.15923320182871,1171.875,1186.3037109375,0.3234941073651883,0.4672615256292062,0.3516824641001532,65.35152401134489,0.3148693823550098,66.12866246946176,0.0020833333333333333,2,0.2520322166666667,0.003114564967437489,5.288262285227397e-06,32.31266666666667,0.011234866364234344,-6.944446328237036e-07,68.074,3.9384299748334564,12.280000000000001,-0.006999029676386087
S040,11653.0,11682.984375,W,-0.49674479166666646,55.31382077403774,-117.76,86.88,204.64,12.625,43.033654101392926,1203.125,1195.1985677083333,0.41339864235384227,0.19982631347136334,0.21578094200034337,64.97008824710855,0.3581314883236044,66.12866246946176,0.21875,134,0.2601656583333333,0.0021122636415933527,3.447749850192556e-06,32.32933333333333,0.01062491830033975,1.0555558418934892e-05,57.19233333333334,2.9307560837132494,10.399999999999999,-0.0052699667073477395
S040,11683.0,11712.984375,W,0.9634479166666662,61.784823362242754,-132.47,92.87,225.34,12.805,42.67596747432672,1156.25,1161.71875,0.36110844016106236,0.23437268517375393,0.17677362623014653,64.92585264454485,0.32485901380478893,66.12866246946176,0.20833333333333334,146,0.26683685,0.0022254764046154237,3.7424515360382818e-06,32.36000000000001,0.018439088914583904,2.388889536916426e-05,50.51533333333334,0.25463350569440407,1.25,-0.00010256947226819439
S040,11713.0,11742.984375,N2,-1.1606354166666664,69.87426348756442,-143.64,104.69,248.32999999999998,13.43,33.731620242229525,1140.625,1145.5891927083333,0.2900232719350102,0.32953401179628716,0.11557806855349138,64.90976824079374,0.29599311891748425,66.12866246946176,0.20833333333333334,141,0.27443681666666664,0.0023002568805220226,3.817990185001684e-06,32.39333333333333,0.014681810363696382,1.326389248694998e-05,51.22466666666667,0.3929947695439332,1.2000000000000028,0.0007029863018083505
S040,11743.0,11772.984375,N2,1.3358020833333335,73.37102589665417,-156.5,119.73,276.23,16.445,41.296008843110656,1156.25,1164.3147786458333,0.24206145913796356,0.3560473960919935,0.10642856726723117,64.89721987746807,0.2716042014252089,66.12866246946176,0.20416666666666666,144,0.2812465833333333,0.0018537908709063068,2.873004685602405e-06,32.425999999999995,0.016653327995731153,1.9444449719092172e-05,51.955666666666666,0.08558361733156392,0.28999999999999915,0.00014878476258267222
S040,11773.0,11802.984375,N2,-0.024072916666666798,72.74431082189875,-157.24,110.85,268.09000000000003,15.735,43.51690960488407,1156.25,1163.427734375,0.24016912082368586,0.41339864235384227,0.07880950133074056,64.93296783368297,0.2855929093945953,66.12866246946176,0.27291666666666664,154,0.287234575,0.001992727137461371,3.110700279595337e-06,32.464000000000006,0.017999999999999815,2.0763894521455407e-05,51.65333333333333,0.16265163865007834,0.5799999999999983,-0.00029104174561679353
S040,11803.0,11832.984375,N2,0.11891666666666699,76.666692608963,-162.59,120.95,283.54,15.120000000000001,57.83291877117955,1187.5,1192.3583984375,0.1899835519196333,0.4732137007708275,0.08507936450096985,64.97417306491933,0.27868954635352583,66.12866246946176,0.3729166666666667,147,0.2932656166666667,0.002068153633813391,3.276700975667573e-06,32.495666666666665,0.012827920936596043,1.3576392571720718e-05,51.11466666666667,0.20760111324899605,0.5500000000000043,-0.0003673612107642185
S040,11833.0,11862.984375,N2,-0.33022395833333335,77.04114732767435,-162.34,116.83,279.17,14.56,55.87658739217507,1187.5,1200.09765625,0.1529193630552463,0.48765577995367004,0.07210109366946756,64.98950468683981,0.27330793236827144,66.12866246946176,0.409375,163,0.2992534333333334,0.002211965094410149,3.556909385012314e-06,32.53833333333333,0.015073892072792448,1.8090282685079495e-05,50.44266666666667,0.2878186157210051,0.8299999999999983,-0.000515625139872271
S040,11863.0,11892.984375,N2,0.22569791666666675,78.05319287546526,-169.68,121.57,291.25,17.995,48.57945508946814,1156.25,1155.1513671875,0.139283726964862,0.4990866223384697,0.05589199343873464,65.05863690925854,0.28101929221731237,66.12866246946176,0.020833333333333332,18,0.3049536416666667,0.0014375605946407596,2.0696778617832775e-06,32.57066666666667,0.015040685563573013,1.5763893165120434e-05,50.271,0.2543927409865829,0.6499999999999986,0.0004453126207987795
S040,11893.0,11922.984375,N2,-0.28709895833333354,76.354599102031,-157.57,118.22,275.78999999999996,18.19,58.54783130918204,1078.125,1085.0423177083333,0.4247343941283252,0.5767852343786396,1.004829915817708,65.06794536327168,0.4269401233902772,69.26759704219572,0.030208333333333334,19,0.3101087833333333,0.001764135969737651,2.6612190378740795e-06,32.60866666666667,0.017074997966487402,2.12500057644332e-05,51.635000000000005,0.7552604407310985,2.3699999999999974,0.0013506600886122198
S040,11923.0,11952.984375,N2,-0.6311614583333328,73.42735829514159,-187.75,132.31,320.06,16.335,86.40034274280525,1078.125,1059.1796875,0.14396119751130473,0.1798798789007079,0.3078807912118296,65.11603239407728,0.15556430657701453,66.37770710110436,0.022916666666666665,13,0.3153604666666667,0.0015500448215741694,2.2130691767223277e-06,32.638,0.013999999999998637,1.694444904091865e-05,54.635000000000005,0.8208278341609359,2.530000000000001,0.0014276045539291858
S040,11953.0,11982.984375,N2,0.7337968749999998,74.40665544275922,-155.45,115.93,271.38,18.5,43.337997497288974,1093.75,1091.2190755208333,0.045595976308831845,0.06441510347391795,0.032258047015004204,65.12234090445614,0.050893258907218165,65.95452979136459,0.0020833333333333333,2,0.31993944999999996,0.0017902200975019745,2.7643809582196487e-06,32.667333333333325,0.014590712418827144,1.69444490409209e-05,55.943333333333335,0.11028246561544688,0.3999999999999986,3.270834220603995e-05
S040,11983.0,12012.984375,N2,-1.1948125,78.21631254602953,-160.55,115.44,275.99,15.13,38.74633932426284,1093.75,1089.4938151041667,0.0,0.0,0.03225804701500421,65.12276038284969,0.006200909463789789,65.12296062065974,0.0,0,0.32510580833333336,0.0017806555735451024,2.862131635777902e-06,32.69566666666666,0.01706523431489458,1.2951392402179731e-05,55.08733333333334,0.48078361961373933,1.2199999999999989,-0.0007906946589340978
S040,12013.0,12042.984375,N2,0.12227604166666678,76.54618240655475,-149.06,108.28,257.34000000000003,17.340000000000003,27.632098191730407,1078.125,1070.9635416666667,0.0,0.0,0.04559597630883185,65.12339181079224,0.009437056831010742,65.3299318842443,0.0020833333333333333,2,0.32975945000000007,0.0017645745939177456,2.7199017794872347e-06,32.724333333333334,0.014533486237726847,1.350694810843721e-05,55.20766666666667,0.19345427251822464,0.6999999999999957,0.000331007034235849
S040,12043.0,12072.984375,N2,0.9100052083333334,75.70110504099037,-150.11,110.6,260.71000000000004,19.825000000000003,34.11666048438422,1093.75,1083.1217447916667,0.032258047015004204,0.05581428468591173,0.07880950133074056,65.1267580032285,0.0575209143034493,66.6783323126786,0.008333333333333333,7,0.3351286916666666,0.0015754592229771864,2.3977144091022098e-06,32.744,0.013808210118140811,6.4583350852698585e-06,55.667666666666676,0.14959240919541741,0.37000000000000455,0.0002615625709533904
S040,12073.0,12102.984375,N2,-0.24638020833333332,75.43819283009121,-153.24,118.89,272.13,18.58,40.77535015771598,1062.5,1052.6529947916667,0.0,0.0,0.05581428468591172,65.12360740585846,0.011551953027511688,65.3299318842443,0.003125,3,0.33951539999999997,0.0014200558932661801,1.9470760490115186e-06,32.75866666666666,0.013349989596335944,1.5069448532296336e-05,55.88233333333333,0.09468133689146759,0.3200000000000003,0.00015913198761175878
S040,12103.0,12132.984375,N2,-0.7078645833333332,75.44543726209798,-147.61,107.93,255.54000000000002,18.48,29.389338634930077,1046.875,1047.0784505208333,0.0,0.05581428468591173,0.09090593428863095,65.12633422377719,0.03486506660530486,65.6505902486794,0.011458333333333333,11,0.343262275,0.001209470565733206,1.5152297947129447e-06,32.78866666666667,0.014544949486180772,1.0833336272062829e-05,56.36666666666667,0.21561282171728283,0.7100000000000009,0.0003833334373191829
S040,12133.0,12162.984375,N2,-0.08927604166666683,77.9347700286836,-156.9,115.25,272.15,17.37,38.504556884373464,1062.5,1067.4967447916667,0.0,0.032258047015004204,0.1015291077584267,65.12566618551796,0.02699800891401274,65.6505902486794,0.011458333333333333,11,0.34681616666666665,0.0012233552450353741,1.6755850899482154e-06,32.806666666666665,0.012736648783028787,1.4097226046339959e-05,56.80233333333334,0.06259304185681448,0.22999999999999687,-5.80208490724958e-05
S040,12163.0,12192.984375,N2,0.9017500000000002,78.98088204630598,-153.52,115.83,269.35,21.14,34.96219530927143,1062.5,1060.5143229166667,0.0,0.09090593428863095,0.1428261375083551,65.13166943555127,0.05600480406632552,65.6505902486794,0.029166666666666667,28,0.3510006916666667,0.001685949118428719,2.5108285890919658e-06,32.82666666666666,0.014220486005133752,1.52777819221401e-05,56.290333333333336,0.15417486464689686,0.5100000000000051,-0.00021343755789864283
S040,12193.0,12222.984375,N2,0.4723697916666667,78.33688044711872,-155.8,119.99,275.79,16.53,46.743810531817985,1093.75,1094.4254557291667,0.0,0.11987768650679834,0.194978186101819,65.1388478319186,0.07418308537041074,65.6505902486794,0.05416666666666667,44,0.35452317499999997,0.0013037538281343481,1.7209112741187086e-06,32.85066666666667,0.018427033281445678,2.3125006273057563e-05,55.985,0.2798303057211641,0.7199999999999989,-0.00048434040916352315
S040,12223.0,12252.984375,N2,-0.23445833333333255,78.55850226714227,-177.88,140.79,318.66999999999996,16.215,59.20299355080726,1093.75,1112.5162760416667,0.05581428468591173,0.2343726851737539,0.27480856657660596,65.16817813901194,0.14511389322693877,65.85590330410783,0.12708333333333333,82,0.3580239250000001,0.0015333312653745196,2.235439191471146e-06,32.89133333333333,0.015434449203720382,1.3333336950233017e-05,55.36533333333333,0.2934817806194379,0.9299999999999997,-0.0004743751286824905
S040,12253.0,12282.984375,N2,-0.29119791666666667,78.535013699586,-161.06,115.53,276.59000000000003,18.305,47.738268371402164,1093.75,1087.255859375,0.15925921720229852,0.45452967144315476,0.35501736068661327,65.2859798032216,0.27043076750113093,65.85590330410783,0.27291666666666664,145,0.3613544416666666,0.001293546615548585,1.7885961883127545e-06,32.91199999999999,0.0119443152447794,1.4513892826034983e-05,54.24266666666666,0.11755660575040301,0.44999999999999574,-5.402779243375528e-05
S040,12283.0,12312.984375,N2,0.02703125000000005,79.70253782319203,-163.76,132.34,296.1,17.72,52.856529261224075,1078.125,1092.5374348958333,0.3283415290855274,0.47696960070847283,0.4559490540954719,65.42577792424008,0.3533761093899355,65.85590330410783,0.18645833333333334,121,0.36438563333333335,0.0013731258556867855,1.7813576880853128e-06,32.942,0.014236104336042575,1.72222268940514e-05,54.46033333333333,0.05706623831614987,0.23000000000000398,9.829863777632402e-05
S040,12313.0,12342.984375,N2,0.2556093750000001,82.02451917620118,-164.95,121.63,286.58,20.895000000000003,44.05486967424913,1078.125,1080.6884765625,0.4433096406576333,0.359101647247065,0.49716972391226716,65.44203805839162,0.3940555341876964,65.85590330410783,0.2635416666666667,186,0.36834557500000004,0.0013703556999461787,1.8622876145528373e-06,32.982333333333344,0.018381754238616273,2.01041721202727e-05,54.84466666666666,0.10676245698850301,0.3299999999999983,0.00018097227131409025
S040,12343.0,12372.984375,N2,-0.296567708333333,80.04889278877603,-164.94,119.36,284.3,17.71,61.279925866210824,1093.75,1082.71484375,0.4979896651510171,0.24762544169571912,0.49052546761100996,65.36598951392867,0.40941812161165225,65.85590330410783,0.2677083333333333,190,0.3713666,0.0010158652174378294,9.785419321131571e-07,33.007666666666665,0.014985177861992879,3.993056638741808e-06,55.269666666666666,0.10150478915904468,0.36999999999999744,0.00010788197370930286
S040,12373.0,12402.984375,N2,0.3262604166666668,81.66347215653612,-158.64,145.17,303.80999999999995,19.07,40.75457132672438,1062.5,1069.82421875,0.49682586235018,0.11987768650679835,0.48789046862487484,65.3127755550524,0.4116725584163332,65.85590330410783,0.23229166666666667,165,0.37405639166666665,0.001342473670107007,1.8148088690345363e-06,33.04266666666667,0.01730767331432878,1.8888894012827584e-05,55.43333333333333,0.06852412389484129,0.22999999999999687,6.763890723711697e-05
S040,12403.0,12432.984375,N2,0.222921875,80.22794277384322,-170.61,128.22,298.83000000000004,16.79,76.89292691798896,1062.5,1069.5963541666667,0.49932137105998403,0.3487079325484613,0.48946807153843597,65.31168186736194,0.3897691494229668,65.85590330410783,0.22916666666666666,147,0.3772795583333334,0.0013521278095150206,1.7246712577775752e-06,33.078,0.018330302779824982,2.4861117855123225e-05,55.73966666666667,0.14446414395582302,0.3999999999999986,0.0002314931183520819
S040,12433.0,12462.984375,N2,-0.3603229166666667,77.8274151106947,-161.22,116.2,277.42,17.15,53.86847986495679,1062.5,1066.1051432291667,0.4535689874637472,0.36010794822525094,0.4935246936718454,65.41881861249205,0.4018764476801211,65.85590330410783,0.23229166666666667,155,0.38019382500000004,0.0011175149638259834,1.1978798822373753e-06,33.10133333333334,0.013349989596332774,9.097224690001312e-06,56.160333333333334,0.17083097559348565,0.46000000000000085,0.0002801736871130867
S040,12463.0,12492.984375,N2,-1.076583333333334,76.54194874444484,-150.18,112.11,262.29,17.825,50.50702447056038,1078.125,1064.2985026041667,0.4782600118020414,0.318518434404597,0.47391941232133544,65.36995498245135,0.4046940312797929,65.85590330410783,0.159375,120,0.3817737,0.001062680507019866,8.898309705487612e-07,33.135,0.013844373104862414,1.9618060877293425e-05,55.91633333333333,0.194018613081895,0.5700000000000003,-3.343750907050568e-05
S040,12493.0,12522.984375,N2,1.6975937499999993,78.58566690668404,-159.8,129.94,289.74,21.244999999999997,73.32807419081955,1078.125,1082.0393880208333,0.49749371855330987,0.1428261375083551,0.4917185265728758,65.27330796687885,0.40111352631239616,65.85590330410783,0.13125,106,0.38383343333333336,0.0011493179987376138,1.1432477059591266e-06,33.16066666666665,0.008537498983244244,7.361113107940656e-06,56.162000000000006,0.12073110618229259,0.39000000000000057,-0.0001979167203550131
S040,12523.0,12552.984375,N2,-1.0412239583333334,77.11716440620731,-157.57,118.6,276.16999999999996,15.950000000000001,78.18491185566161,1078.125,1093.5384114583333,0.43942903097529745,0.05581428468591173,0.49808225977241954,65.15606383467481,0.3591827368478203,65.85590330410783,0.2604166666666667,139,0.3862989416666667,0.0013383414443247307,1.566457239164825e-06,33.20166666666667,0.02114762923408238,3.072917500248836e-05,55.46933333333333,0.17578269412987024,0.6799999999999997,-0.00027409729657587275
S040,12553.0,12582.984375,N2,-0.10732291666666652,80.36201590640667,-178.33,164.49,342.82000000000005,17.25,133.47859590806388,1062.5,1030.1188151041667,0.6604322750521475,1.0960150158326099,1.0580708335876616,65.08369387342718,0.3767737473390272,67.17886572427373,0.11145833333333334,68,0.388263125,0.0010789145978134696,9.949436292707314e-07,33.24,0.015275252316520459,1.3125003560385279e-05,56.26166666666666,0.9404682639810636,2.3100000000000023,0.0016335073875616828
S040,12583.0,12612.984375,N2,0.8636666666666666,79.49290356687857,-172.93,123.91,296.84000000000003,19.564999999999998,85.21933362570022,1062.5,1079.39453125,0.47461492980859993,0.36310862460686455,0.1402154530138846,65.23143029161214,0.3432109806128172,65.95452979136459,0.011458333333333333,10,0.3904728333333333,0.0010280651189924148,5.443156858495214e-07,33.274,0.016653327995728648,2.0000005425348415e-05,56.52266666666666,0.6254754635919425,1.6499999999999986,-0.0011040280772645604
S040,12613.0,12642.984375,N2,-0.33310937500000043,79.06008078359692,-178.86,123.93,302.79,15.254999999999999,91.809789592339,1156.25,1141.7154947916667,0.10152910775842672,0.4090767042988393,0.14627537173085564,65.0264426984101,0.22425801447464608,66.15889962809237,0.030208333333333334,28,0.3918712583333333,0.0009962828789709076,8.142361149729045e-07,33.313,0.018645821694595905,2.7326396301648808e-05,53.56133333333334,1.7826473446970814,4.449999999999996,-0.0031184730681621826
S040,12643.0,12672.984375,N2,-0.040958333333333145,79.48013626921676,-171.45,118.91,290.36,17.665,71.11518313211437,1078.125,1071.7041015625,0.032258047015004204,0.318518434404597,0.21137108216357317,65.07436362844993,0.1711189224109245,65.6505902486794,0.042708333333333334,37,0.39373889166666665,0.0021584453309262236,1.0752368368154978e-07,33.34333333333334,0.012472191289245257,9.444447006414237e-06,52.38766666666667,0.8141976964404218,2.1299999999999955,0.0014231601082791104
S040,12673.0,12702.984375,N2,-0.12207291666666625,106.05703330576281,-812.18,690.68,1502.86,14.405000000000001,98.08379580405727,1015.625,1048.6165364583333,1.2868825211587454,2.2108807535905735,3.030481002112811,65.23967823631581,0.7938620505568094,74.35052118176442,0.03854166666666667,21,0.37832574166666666,0.003106600026545185,1.5867033384069293e-06,33.37833333333333,0.01733653816526061,2.1215283532791998e-05,55.477666666666664,1.9195705827664225,4.800000000000004,0.003319410622669982
S040,12703.0,12732.984375,N2,-0.7736302083333332,66.5733750435275,-140.5,107.89,248.39,11.905000000000001,150.82992181028553,1046.875,1002.5553385416666,0.4695306000411475,0.36110844016106236,0.25654623798103576,65.09718298335387,0.41268547152698737,66.09841147864296,0.29583333333333334,168,0.38265957500000003,0.0010998207782975341,1.0544801037543645e-06,33.41533333333333,0.014544949486181163,1.944444971908975e-05,56.842666666666666,0.7153970148727827,1.8699999999999974,-0.00123750033569345
S040,12733.0,12762.984375,N1,1.2474062499999998,78.07041955718543,-378.82,298.21,677.03,11.225,108.37039680291835,1015.625,1026.9368489583333,12.858043673489952,5.013325883575748,29.6749918094157,64.69252766418916,2.11191802668893,79.95623803056269,0.03125,9,0.39155055,0.009633273132611779,9.45177600145832e-06,33.44533333333333,0.013349989596334193,1.3680559266644637e-05,55.16833333333334,1.1405176699883064,2.8999999999999986,-0.001920938021087787
S040,12763.0,12792.984375,N2,-0.2886770833333332,35.646442773670394,-82.49,63.9,146.39,5.075,163.29892603805334,1046.875,987.2233072916666,0.45505932916000696,0.2763853991962833,0.4818944098266987,64.07013581410561,0.35206073632242957,64.82283548256741,0.38645833333333335,132,0.3945498833333333,0.0008579642201488036,-3.273351582397859e-07,33.47533333333334,0.016069294390925176,2.19444503972573e-05,56.477,1.039574111515544,3.719999999999999,0.001849549112833417
S040,12793.0,12822.984375,N2,-0.5155312500000001,36.741548675753634,-157.86,68.53,226.39000000000001,3.79,72.5106625371249,1093.75,1107.4544270833333,0.08507936450096985,0.4470376549358628,0.21137108216357317,64.00016899524404,0.21945443005218412,64.82283548256741,0.04479166666666667,40,0.39433649166666657,0.0009341658310656342,-4.6214639272633106e-08,33.501,0.012206555615733522,9.895836017749573e-06,56.70033333333333,0.6252225381591916,1.8999999999999986,-0.0010050349948554126
S040,12823.0,12852.984375,N2,-0.13209374999999995,31.769564149374332,-72.46,58.59,131.05,4.279999999999999,112.05634924424125,1109.375,1106.8115234375,0.16061608276155495,0.12849286620924394,0.09107288747664329,64.06204345091804,0.10899797866439255,64.82283548256741,0.0125,8,0.3950088416666666,0.0010232058850807486,2.3311399552788206e-07,33.525666666666666,0.018562207723100393,2.0798616753096283e-05,54.31133333333334,0.8389466941084845,3.3200000000000003,-0.0013537503672282894
S040,12853.0,12882.984375,N2,0.17291145833333327,29.69666863703728,-67.63,47.2,114.83,5.630000000000001,63.981761555545056,1140.625,1148.5514322916667,0.0,0.0,0.08507936450096985,64.06483642704629,0.06344479857212958,64.07027391856539,0.0,0,0.39680212499999995,0.0013424634853041678,1.5125700717692348e-06,33.54066666666667,0.012364824660659602,2.777778531298518e-06,52.13566666666667,0.16267930278789425,0.5,-0.00015163198557725086
S040,12883.0,12912.984375,N2,0.15677083333333347,51.58088237267094,-472.71,287.08,759.79,6.9350000000000005,68.2005203330388,1125.0,1103.8899739583333,0.542227273997414,0.0,0.29788024252858547,63.87533231275586,0.3066027859274149,64.82283548256741,0.05520833333333333,42,0.397634775,0.0008874386313289477,6.11310712703643e-07,33.556000000000004,0.010519822558707393,6.319446158704397e-06,51.830666666666666,0.37851405375347535,1.3999999999999986,0.0003627778761875738
S040,12913.0,12942.984375,N2,-0.08438541666666666,26.592572963325445,-62.87,47.84,110.71000000000001,5.895,114.08913590224867,1031.25,1056.0872395833333,0.2895739656758221,0.2942427162083484,0.25742236896133686,64.03337742464025,0.2338815802313719,65.36818798161687,0.07291666666666667,52,0.39857417500000003,0.0012338286730235347,1.1750843031370263e-06,33.577333333333335,0.016719914938647624,1.798611599015955e-05,54.13766666666666,0.7320504688126969,2.720000000000006,0.0012955906292292287
S040,12943.0,12972.984375,N2,0.030713541666666653,28.057472290172093,-64.8,50.3,115.1,5.0649999999999995,94.41915088459403,1109.375,1083.9274088541667,0.032258047015004204,0.4724977494802371,0.48693766534388727,63.91168750809918,0.3782523854229683,64.62197768561404,0.16979166666666667,131,0.399983275,0.0010584411884346722,7.169487621931341e-07,33.598000000000006,0.013266499161420532,1.0000002712673664e-05,55.794999999999995,0.19241881404893876,0.7199999999999989,-8.475696743624377e-05
S040,12973.0,13002.984375,N2,0.28591145833333315,28.680609851621192,-113.11,63.7,176.81,5.925,58.61056390339152,1125.0,1115.2180989583333,0.29270647982805803,0.5059530593482847,0.48365201419340054,64.00746961187915,0.40962448376439115,65.0,0.3541666666666667,146,0.4019581416666667,0.0009919943657084095,8.806623482699538e-07,33.61866666666667,0.0168786518682293,2.1597228080844887e-05,54.818666666666665,0.18532374075894575,0.6799999999999997,-0.0003156945300820667
S040,13003.0,13032.984375,N2,-0.11687499999999984,27.44948958095958,-60.54,53.94,114.47999999999999,4.135,139.44837560321943,1062.5,1066.2841796875,0.18943160136899603,0.2207841926457196,0.446003666838439,63.900203847373376,0.32975738171425945,65.0,0.2552083333333333,126,0.40372984166666664,0.0010915805054738466,8.531788338701172e-07,33.64566666666666,0.017065234314892153,2.2812506188285885e-05,55.02766666666666,0.59069836258073,1.6300000000000026,0.0009873266567183856
S040,13033.0,13062.984375,N2,0.12661458333333336,26.77885640601469,-58.58,43.37,101.94999999999999,5.15,68.5060387051127,1125.0,1105.7535807291667,0.05581428468591173,0.04559597630883185,0.36985914877228,63.832437222835416,0.27605831408639525,64.45153217728807,0.16666666666666666,122,0.405383975,0.0013123645165787556,1.1320734407751263e-06,33.68033333333333,0.019232495649003194,1.8576393928059216e-05,55.241,0.41408010497165043,1.259999999999998,-0.0007267710304825922
S040,13063.0,13092.984375,N2,0.020031250000000167,28.39838664906612,-59.61,44.23,103.84,5.78,50.65517261595413,1093.75,1077.6774088541667,0.1428261375083551,0.08507936450096985,0.33071891388307384,63.81168836363754,0.25554487278100074,64.45153217728807,0.14583333333333334,114,0.4077003,0.0012979676267149414,1.671861130604694e-06,33.733333333333334,0.019379255804998923,3.1319452940390445e-05,54.349999999999994,0.43737093334300725,1.25,-0.0005951390503306885
S040,13093.0,13122.984375,N2,-0.5673697916666666,25.687669340656832,-59.48,50.0,109.47999999999999,3.41,61.90139154151573,1046.875,1062.2151692708333,0.15699820858850588,0.03225804701500421,0.26339134382131846,63.77590658235423,0.21259805304479576,65.0,0.09270833333333334,80,0.4098993499999999,0.0011691927460859473,1.0252450697821867e-06,33.804,0.024027761721253694,3.618056537016249e-05,55.312000000000005,0.6107885613423576,1.8599999999999994,0.0010696530679397426
S040,13123.0,13152.984375,N3,0.3504270833333333,27.369589100421898,-58.39,47.94,106.33,7.3,55.90662702757048,1062.5,1063.5498046875,0.09090593428863096,0.04559597630883184,0.194978186101819,63.74344260832448,0.15337678847644332,64.45153217728807,0.04791666666666667,42,0.41161794999999995,0.0010817024301997182,1.0270658168038647e-06,33.870999999999995,0.021501937897159797,3.128473070874858e-05,56.12166666666667,0.05447221513966823,0.240000000000002,1.2187503306072262e-05
S040,13153.0,13182.984375,N2,0.13677604166666668,26.106624924924247,-59.58,43.08,102.66,5.29,75.61886048769952,1046.875,1054.8258463541667,0.07880950133074056,0.03225804701500421,0.13188915142607024,63.72729114390233,0.10737842881536121,64.45153217728807,0.025,22,0.4135174916666667,0.000991824564425201,3.2421775288025186e-07,33.92733333333333,0.015260697523014602,1.9027782939396945e-05,56.45000000000001,0.05561774297230478,0.20000000000000284,-2.2430561640235235e-05
S040,13183.0,13212.984375,N2,-0.0440729166666668,24.990278163361513,-55.9,45.88,101.78,4.525,68.94823259672293,1062.5,1048.9583333333333,0.08507936450096985,0.055814284685911715,0.39561397430660444,63.846614387956755,0.2876592814769938,64.66838485689897,0.18125,140,0.4145313666666667,0.0009911984659435817,6.292892332056393e-07,33.970333333333336,0.01601735170231153,1.822917161164525e-05,57.06466666666667,0.35932096453666,1.0700000000000003,0.0004906251330905857
S040,13213.0,13242.984375,N2,0.1391718750000001,25.079615439960243,-58.07,45.34,103.41,5.005,102.705941820448,1125.0,1113.5660807291667,0.045595976308831845,0.0,0.4046120827409878,63.862031656999115,0.30151723075500086,64.45153217728807,0.20625,146,0.41546004166666667,0.0011786145849812671,1.0243759289214217e-06,34.00233333333333,0.017065234314893794,2.114583906950931e-05,56.144000000000005,0.5321816732407582,1.5200000000000031,-0.0009019446891125996
S040,13243.0,13272.984375,N2,-0.20126041666666675,25.001924914954376,-56.3,43.41,99.71,5.165,51.00037597899962,1078.125,1083.6100260416667,0.0,0.0,0.35398126274564307,63.819152902059656,0.2623887641078722,64.45153217728807,0.146875,113,0.416634275,0.0009637698373444845,5.145684989606429e-07,34.04633333333333,0.01923249564900184,2.6979173985235443e-05,54.838666666666676,0.45217793940979545,1.259999999999998,-0.0007294446423189681
S040,13273.0,13302.984375,N2,-0.04004166666666678,25.673321555376585,-56.31,41.23,97.53999999999999,6.44,61.19125871085522,1031.25,1045.01953125,0.032258047015004204,0.0,0.41894688572127553,63.8780474394039,0.309995154688684,64.45153217728807,0.22604166666666667,153,0.41885467500000007,0.0012430302970462992,1.4363994781899676e-06,34.086000000000006,0.016653327995729276,2.4305562148861232e-05,55.504999999999995,0.590207590598426,1.6599999999999966,0.0010391322263271002
S040,13303.0,13332.984375,N2,-0.14321354166666675,26.262943807455525,-66.44,65.38,131.82,5.45,54.376668867904165,1031.25,1034.3505859375,0.13287273960657078,0.5916950917467731,0.34947722614960514,63.99932559970918,0.24124216549013264,64.77653896280658,0.08645833333333333,65,0.4200396,0.0008709125329216514,4.1699230061640023e-07,34.11466666666668,0.013349989596334004,6.319446158703188e-06,57.06733333333333,0.46062228440327196,1.3299999999999983,0.0007902779921544029
S040,13333.0,13362.984375,N2,-0.11611458333333324,24.110361746547287,-53.93,50.53,104.46000000000001,4.955,77.69113698097722,1062.5,1061.3362630208333,0.2955379246908179,0.0789470638395684,0.16754650577443328,64.07510946368822,0.1618040472431593,65.46754921333164,0.00625,4,0.42098965833333335,0.0010989615135498902,9.081588835066298e-07,34.143333333333324,0.013249737942899154,1.520833745885654e-05,57.725,0.285619210371665,0.7800000000000011,0.00043260428401808976
S040,13363.0,13392.984375,N3,0.47028125000000004,25.765333046639075,-53.88,41.37,95.25,5.875,51.11559230859914,1046.875,1053.80859375,0.28256636388643286,0.0,0.03225804701500421,64.06123495802208,0.1542746028689881,64.10928169929842,0.0,0,0.42293213333333335,0.0011002572269953712,1.0550271959166626e-06,34.19333333333332,0.027968235951204404,4.166667796947689e-05,57.53666666666667,0.2558167747084273,0.8000000000000043,-0.00036250009833444457
S040,13393.0,13422.984375,N2,0.005880208333333403,24.894537485582386,-55.08,42.37,97.44999999999999,4.4399999999999995,77.81595095633976,1031.25,1038.4440104166667,0.30617913012193076,0.032258047015004204,0.05589199343873463,64.05535242522244,0.1625085040365465,64.31174076325411,0.0010416666666666667,1,0.4245756083333333,0.0011687335688387581,9.158316286435706e-07,34.239333333333335,0.014360439485693289,1.597222655496748e-05,57.71666666666667,0.29945877104462254,0.8800000000000026,9.53472480868182e-05
S040,13423.0,13452.984375,N2,-0.15241666666666667,24.849465960755015,-55.9,40.23,96.13,5.220000000000001,53.66338979597135,1031.25,1038.1429036458333,0.3206980234148976,0.032258047015004204,0.0,64.051195829021,0.17541723329488668,65.06919393998976,0.003125,3,0.4255896,0.0009885764714982867,9.234989484317857e-07,34.28066666666667,0.01982142499642479,2.5694451414509852e-05,57.608,0.22094343167426347,0.6400000000000006,0.0003860417713871988
S040,13453.0,13482.984375,N3,0.09600520833333322,25.339409501513437,-56.27,55.64,111.91,5.015,53.11210263839476,1046.875,1054.2399088541667,0.297201939858332,0.0,0.045595976308831845,64.05484569951186,0.16353107266497863,64.10928169929842,0.0,0,0.42760716666666665,0.0015424625513192282,1.8105677654534984e-06,34.31966666666667,0.015807874268506158,2.1840283702334836e-05,57.22666666666667,0.3102507946090639,0.9600000000000009,-0.00045923623568691347
S040,13483.0,13512.984375,N3,-0.36694791666666676,26.350984355771622,-55.46,45.48,100.94,5.855,39.27011544864087,1015.625,1027.7180989583333,0.254795584597841,0.0,0.0,64.07156478922639,0.1376969860446064,64.10928169929842,0.0,0,0.429187075,0.0011595526807243264,1.2651546400701453e-06,34.364333333333335,0.019610088106775656,2.8784730030578246e-05,57.05133333333333,0.05352465683111665,0.1700000000000017,-3.3750009155274805e-05
S040,13513.0,13542.984375,N3,0.21821354166666662,26.07124014691572,-57.73,45.89,103.62,6.945,53.30396439642075,1031.25,1026.9856770833333,0.24944382578492943,0.0,0.032258047015004204,64.07249373714806,0.1366429768517803,64.10928169929842,0.0,0,0.43114044999999995,0.0011854102022085093,1.3658202489746894e-06,34.39133333333333,0.014544949486180491,7.777779887635757e-06,57.489000000000004,0.1166004574033334,0.5799999999999983,0.00015010420738503777
S040,13543.0,13572.984375,N3,0.21949479166666666,26.973642835510397,-56.09,49.63,105.72,6.625,49.14343115161816,984.375,990.7145182291666,0.274808566576606,0.0,0.07210109366946756,64.0625374310121,0.1569434086116443,64.8459713474939,0.0010416666666666667,1,0.4336162833333333,0.0009488824846745827,6.570791712996832e-07,34.41666666666666,0.013984117975603304,5.833334915726972e-06,58.79266666666667,0.4981561557941,1.519999999999996,0.0008868057961170235
S040,13573.0,13602.984375,N2,-0.040807291666666794,27.533277311365065,-59.01,50.48,109.49,7.495,44.288654854195414,968.75,967.5537109375,0.3197747009614738,0.0,0.0,64.04679547514921,0.17281309095370934,64.10928169929842,0.0,0,0.43489720833333334,0.0011329351621329573,1.1725856045425463e-06,34.44066666666666,0.018427033281448756,2.1527783617564638e-05,60.16366666666668,0.6440884169808432,1.8000000000000043,0.0011487850338501064
S040,13603.0,13632.984375,N2,-0.00682291666666656,26.17831665372715,-60.62,47.12,107.74,5.215,92.65941765273672,937.5,952.0100911458334,0.4328322423295196,0.49434299833212964,0.38436088501635485,63.88489606729013,0.36550805491171856,64.8459713474939,0.11770833333333333,87,0.43596470000000004,0.0010961514995656348,2.173919860546815e-07,34.47400000000001,0.014966629547095826,1.4027781583056894e-05,61.88099999999999,0.6640097890844674,1.7399999999999949,0.001165521149501178
S040,13633.0,13662.984375,N2,0.014104166666666659,27.77038964754815,-59.87,52.83,112.69999999999999,4.925,46.21101592211224,1062.5,1055.56640625,0.45452967144315476,0.3146988612370386,0.4728570079844434,63.847063232927454,0.41760211992164364,64.8459713474939,0.21770833333333334,158,0.4385907166666667,0.0016584752343811369,2.1476967631555923e-06,34.50166666666667,0.018454147380888596,2.545139579302178e-05,61.777,0.7008953797346178,2.25,-0.0012616322866841063
S040,13663.0,13692.984375,N3,-0.23478125000000022,29.617731709548845,-76.84,63.66,140.5,5.445,58.15040368224017,1015.625,1021.8017578125,0.3475859206329022,0.317991676930737,0.3952352938440594,63.83299060727183,0.3451112843895284,65.39113089708727,0.14895833333333333,118,0.47883117500000005,0.0229798907325015,3.9891654267484335e-05,34.550666666666665,0.01504068556357105,1.75694492104627e-05,58.832,1.0999042382559188,3.2099999999999937,-0.001968750534057761
S040,13693.0,13722.984375,N3,-0.1185937499999999,25.980047502473784,-60.7,46.24,106.94,5.140000000000001,30.33650600169074,984.375,1003.4098307291666,0.3567780564962232,0.3259334884434075,0.39197129111142254,63.82732779166785,0.3598869845535764,65.22269543648132,0.16041666666666668,118,0.5214521249999999,0.011487175042601853,9.979828879076845e-06,34.594666666666676,0.017650936393164927,2.3402784126188412e-05,58.23966666666667,0.41672919530820307,1.4699999999999989,0.0007432293682805365
S040,13723.0,13752.984375,N3,0.23822916666666671,27.977861011163498,-62.03,50.14,112.17,7.345,52.87902772501595,1000.0,1005.0537109375,0.36795317627458474,0.2870750936166354,0.43597825625890513,63.84810899302344,0.38081449771020126,64.8459713474939,0.19791666666666666,154,0.5565799166666667,0.015568345940070899,1.1078052050252822e-05,34.632,0.013999999999999449,6.319446158703805e-06,59.44233333333333,0.3033994433452743,1.0,0.0005419098692246828
S040,13753.0,13782.984375,N3,0.018229166666666755,28.200295637663967,-63.88,49.56,113.44,6.995,61.64523869320382,1015.625,1011.279296875,0.3660254217605657,0.26339134382131846,0.43597825625890513,63.84301223749009,0.37776329937844905,64.8459713474939,0.19895833333333332,144,0.5772873166666667,0.013458890946745527,-1.5693815021108764e-06,34.66399999999999,0.01562049935181402,2.187500593397606e-05,59.621,0.09822932352408856,0.4299999999999997,-0.0001244097559705281
S040,13783.0,13812.984375,N3,0.07595312499999997,27.213322978442978,-59.26,51.27,110.53,7.62,39.573075822599016,1000.0,997.0540364583334,0.36110844016106236,0.2914805954090255,0.44111108924573134,63.86026084750806,0.38242797347432383,64.8459713474939,0.21041666666666667,155,0.5791339166666667,0.012417766303824086,-1.8944844114812313e-05,34.70099999999999,0.022113344387496014,1.9340283024164575e-05,59.40233333333333,0.0889825201311407,0.28000000000000114,-6.315973935539852e-05
S040,13813.0,13842.984375,N3,-0.19981250000000014,25.219843339914778,-53.34,43.32,96.66,5.46,44.863986988354156,1000.0,989.74609375,0.3508360550171547,0.2530285309999645,0.45210613421764395,63.87219300404795,0.3794766400125429,64.8459713474939,0.22916666666666666,163,0.5448706083333332,0.009007639440400797,-1.5923355230944896e-05,34.744,0.017243356208504545,2.1597228080846863e-05,59.62433333333334,0.14793429472423048,0.6499999999999986,0.0002307986737192572
S040,13843.0,13872.984375,N3,0.02649999999999991,25.5048841450025,-53.1,40.53,93.63,6.279999999999999,52.790083482342325,984.375,997.021484375,0.3736070773739289,0.2382571993782256,0.4564164460470528,63.86274607448418,0.4039869956109651,64.8459713474939,0.24583333333333332,158,0.5304395333333333,0.007312542918316594,-1.237045561264529e-05,34.77733333333334,0.0196525372973116,2.701389621687696e-05,60.217,0.05978572850884505,0.25,2.6493062742259866e-05
S040,13873.0,13902.984375,N3,-0.30553645833333326,25.702913210854376,-59.62,42.95,102.57,6.08,37.45512573290793,984.375,995.9147135416666,0.3580894882528978,0.21794494717703367,0.4422166387140533,63.846077635687564,0.37393698812705345,64.8459713474939,0.21041666666666667,155,0.5141085,0.004206341605243209,-7.065095666529862e-06,34.80733333333333,0.01436043948569177,1.3888892656491554e-05,60.32300000000001,0.05538652062249994,0.21999999999999886,7.809029896112612e-05
S040,13903.0,13932.984375,N3,0.19353645833333338,26.63478370992925,-57.51,41.59,99.1,7.12,51.14046253769451,1000.0,1000.87890625,0.3660254217605657,0.17677362623014653,0.45405077841030067,63.852347926957016,0.3701880803421226,64.8459713474939,0.21875,150,0.5045661083333334,0.002497734903186725,-3.835621049159357e-06,34.82366666666667,0.011967548714010083,4.826390198132182e-06,59.934333333333335,0.18598715606789118,0.6400000000000006,-0.00014461809478572476
S040,13933.0,13962.984375,N3,0.30845312500000005,26.05796724078379,-57.19,43.86,101.05,7.93,28.38287342122279,984.375,983.6100260416666,0.36985914877228,0.17399263633843817,0.46351240544347894,63.86588705444168,0.3812423760541898,64.8459713474939,0.23958333333333334,171,0.496261775,0.002337581265833342,-3.795463920210481e-06,34.851333333333336,0.016679994670927265,7.847224350917414e-06,60.169000000000004,0.12522912334330688,0.3299999999999983,0.00020746533405635053
S040,13963.0,13992.984375,N3,-0.2811666666666666,26.357649731492668,-54.78,44.87,99.65,5.765000000000001,58.78738395291388,1000.0,993.1477864583334,0.3894760881798637,0.1821904480893551,0.46137132362543826,63.85085152375459,0.3859637609652195,64.8459713474939,0.22916666666666666,168,0.4910635916666667,0.0014046334130051739,-1.7785575571173987e-06,34.88499999999999,0.016072751268321268,1.8437505001492643e-05,60.733333333333334,0.19398167152823673,0.6299999999999955,0.00032208342070405213
S040,13993.0,14022.984375,N3,0.33576041666666673,24.672799953527093,-57.01,42.49,99.5,5.725,53.64546729398123,968.75,974.5524088541666,0.2885548282196797,0.2986060642338367,0.389622324252032,63.83600527424131,0.32412285793382395,64.8459713474939,0.15416666666666667,118,0.4879149166666667,0.001355280441970916,-1.7911115969812271e-06,34.91599999999998,0.01724335620850394,1.4513892826034812e-05,60.81633333333333,0.06891943767101522,0.21000000000000085,0.00011968753246732167
S040,14023.0,14052.984375,N3,-0.2914166666666667,26.341148728299395,-55.28,47.93,103.21000000000001,5.15,40.24459807751438,968.75,988.1103515625,0.12401959270615269,0.23437268517375387,0.3210226714043037,63.811495780727164,0.27058189069336047,64.8459713474939,0.165625,130,0.48564115,0.0010281305255170662,-7.75049689412355e-07,34.936,0.01645195023900617,1.8958338476114423e-05,60.88666666666666,0.06644964676772566,0.19999999999999574,-7.430557571223239e-05
S040,14053.0,14082.984375,N3,0.13122395833333336,26.42681757608817,-54.55,46.01,100.56,7.48,32.161589093270685,984.375,985.4085286458334,0.17950549357115012,0.25124473114984036,0.33538431521001233,63.81493986556555,0.2782234490234193,64.8459713474939,0.17916666666666667,141,0.48393315000000003,0.0010325545155099565,-1.0152372545673919e-06,34.96,0.013416407864997657,1.340278141351386e-05,60.784000000000006,0.16564218464308328,0.5,-0.0002900000786675557
S040,14083.0,14112.984375,N3,-0.08509375000000002,27.40236907511303,-53.68,46.09,99.77000000000001,5.95,35.21540339434195,968.75,973.3479817708334,0.11557806855349137,0.26170307270624255,0.3054766312211496,63.80965110523758,0.24851390541729487,64.8459713474939,0.16875,130,0.4832499583333333,0.001074075419417662,-1.2932062969852166e-06,34.989000000000004,0.017194960502038913,1.7048615735844195e-05,60.778999999999996,0.17453461929752861,0.5499999999999972,0.00030982647293469805
S040,14113.0,14142.984375,N3,-0.11975520833333336,27.5373504628349,-57.38,58.77,116.15,6.705,35.02252837645406,984.375,978.9225260416666,0.04559597630883184,0.22838645595544604,0.24762544169571915,63.77979768333228,0.2089437082129682,64.8459713474939,0.115625,98,0.48106205,0.0012554017275358533,-1.4396635849781854e-06,35.01533333333334,0.02217105219775343,3.38194536185571e-05,61.13533333333335,0.11772095065119989,0.4200000000000017,0.00015423615295034472
S040,14143.0,14172.984375,N3,-0.07625520833333335,26.121524573206262,-55.88,45.92,101.80000000000001,5.949999999999999,33.60928809438816,968.75,973.2828776041666,0.09636964965693294,0.20453835214941965,0.25654623798103576,63.775132849025276,0.21441025125294583,64.8459713474939,0.10729166666666666,93,0.4788208166666667,0.0008377387817147233,-2.2765370758834986e-07,35.06066666666667,0.016918103387266525,1.1666669831454217e-05,61.508,0.04888080741286257,0.14000000000000057,-5.194445853528089e-05
S040,14173.0,14202.984375,N3,0.17581249999999998,27.23484822004724,-57.62,45.28,102.9,6.295,37.40623903146015,1000.0,998.7630208333334,0.04559597630883185,0.17116012950028855,0.24016912082368588,63.766738891817695,0.1960300217080192,64.8459713474939,0.0875,74,0.47725159999999994,0.001089477760213584,-1.0847359713368037e-06,35.08800000000001,0.016613247725835924,2.090278344802067e-05,61.28633333333333,0.2180440832084694,0.6999999999999957,-0.0003860764936188393
S040,14203.0,14232.984375,N3,-0.18997916666666667,26.277019142200395,-57.85,46.39,104.24000000000001,6.92,32.786812390270825,968.75,971.2727864583334,0.045595976308831845,0.17677362623014653,0.2582808246366733,63.77529150039483,0.2084323383424687,64.8459713474939,0.1,88,0.4749458000000001,0.0012551185442021041,-1.502284261687362e-06,35.12,0.013416407864999246,1.1041669661912023e-05,60.88166666666666,0.08222259759674051,0.25,-7.170140833914014e-05
S040,14233.0,14262.984375,N3,0.3388489583333334,26.68499855525297,-59.92,43.8,103.72,7.1850000000000005,31.74083106077026,984.375,981.1686197916666,0.04559597630883185,0.15925921720229846,0.24578919095210205,63.76740705205975,0.1938801784252712,64.8459713474939,0.08958333333333333,79,0.47341932499999995,0.0009824012008212283,-3.2940308414797034e-07,35.13633333333333,0.013287420951995265,5.65972375751935e-06,60.993,0.19148803269830456,0.5500000000000043,0.00033885425858676846
S040,14263.0,14292.984375,N3,-0.22017187500000002,26.895025283917143,-55.25,45.45,100.7,5.77,28.8134198358006,984.375,988.0452473958334,0.05581428468591172,0.2200827456448041,0.2242827108249764,63.76831256000433,0.1915417698406395,64.8459713474939,0.10104166666666667,88,0.47240545,0.000991669248035852,-8.065496979572607e-08,35.166999999999994,0.01846618531262019,1.8993060707753944e-05,61.04966666666667,0.1415269899661857,0.4200000000000017,-0.00022656256145902796
S040,14293.0,14322.984375,N3,-0.01587500000000013,26.47717280714418,-57.62,44.97,102.59,6.225,43.10995923848876,968.75,968.0013020833334,0.06441510347391795,0.19741988090108856,0.2748085665766061,63.78522569196409,0.216948746339892,64.8459713474939,0.12083333333333333,98,0.47293907500000004,0.0010808219415680788,7.520833203350982e-07,35.21,0.02065591117977199,2.3541673052752732e-05,61.098,0.12386551847332883,0.3399999999999963,0.00019854172052455476
S040,14323.0,14352.984375,N3,-0.06193749999999995,27.68179927949519,-55.46,50.12,105.58,6.5,61.49886298140816,953.125,965.9586588541666,0.07198059875565237,0.2263462809256845,0.24762544169571912,63.77769864609392,0.20653185717892614,64.8459713474939,0.115625,97,0.4728109666666667,0.0010959210580856412,-2.756446060233853e-07,35.248000000000005,0.014922019523734658,1.4930559605730827e-05,61.32166666666667,0.22516783863499587,0.75,0.0003403820367789812
S040,14353.0,14382.984375,N3,0.3142135416666666,27.250761208906013,-58.17,46.74,104.91,7.635,47.945140588366634,968.75,976.5543619791666,0.05581428468591172,0.19741988090108856,0.2599996661322643,63.77881739032079,0.2139757590177968,64.8459713474939,0.10833333333333334,90,0.4725228666666667,0.0010323707904086013,1.8367669913104738e-07,35.291333333333334,0.017074997966486826,2.3472228589470664e-05,61.81266666666667,0.12513814588507943,0.30999999999999517,-0.0002027083883215023
S040,14383.0,14412.984375,N3,0.050046874999999984,27.16100344757264,-58.92,51.14,110.06,6.25,38.93492826892022,968.75,968.5709635416666,0.10642856726723121,0.20684625513624577,0.2957874817753449,63.793694624163074,0.24779265329593336,64.8459713474939,0.13125,112,0.4727149333333333,0.0010096686233061222,-3.309493085257452e-07,35.315000000000005,0.011761519176250736,1.3298614718589796e-05,61.97966666666666,0.1526320921548136,0.46999999999999886,0.00022586811682620347
S040,14413.0,14442.984375,N3,-0.14072916666666674,27.948969595451683,-54.43,45.99,100.42,6.529999999999999,36.65380393175411,968.75,964.2496744791666,0.09090593428863097,0.2242827108249764,0.254795584597841,63.77865125760775,0.21960667973013773,64.8459713474939,0.11666666666666667,98,0.47378222499999995,0.000902716275678576,2.471374368319878e-07,35.336666666666666,0.01679947089113816,9.02778022671817e-06,61.79066666666666,0.12159861110318006,0.3400000000000034,0.00014590281735645175
S040,14443.0,14472.984375,N3,-0.015546874999999953,27.39692525921953,-58.29,47.7,105.99000000000001,6.27,52.723130648193774,953.125,952.9215494791666,0.09636964965693294,0.22838645595544604,0.2870750936166354,63.7943748020614,0.2363654249554573,64.8459713474939,0.140625,111,0.474742975,0.0010432593993705576,4.283900901665806e-07,35.36866666666666,0.01586050300449309,1.8333338306569318e-05,62.135000000000005,0.1338095661752177,0.4299999999999997,-1.9409727487446857e-05
S040,14473.0,14502.984375,N3,0.05291145833333329,27.607787218775073,-60.38,43.51,103.89,7.155,32.96913423962135,953.125,951.708984375,0.09636964965693294,0.18483053424390916,0.3,63.79343078976403,0.23992305347033055,64.8459713474939,0.12604166666666666,110,0.47567170000000003,0.001225720588062387,3.8641286523786633e-07,35.40333333333332,0.018135294011647048,2.19444503972572e-05,62.56266666666667,0.19966527545425145,0.75,0.0003435417598583329
S040,14503.0,14532.984375,N3,0.06468229166666672,27.549662087747308,-59.01,45.5,104.50999999999999,6.475,27.009735610796525,953.125,949.0315755208334,0.09636964965693294,0.23632521950693283,0.28408104465197176,63.79448526479356,0.2373986802208183,64.8459713474939,0.14166666666666666,113,0.476386925,0.0011357216733755711,1.0772301099257059e-06,35.434666666666665,0.016069294390926737,1.548611531198998e-05,62.845000000000006,0.1366199107011858,0.44999999999999574,0.00019552088637176824
S040,14533.0,14562.984375,N3,0.09853645833333353,30.59262505411714,-102.02,105.62,207.64,6.825,61.34854440452019,968.75,965.8203125,0.18725678670389134,0.3318963165365888,0.19609634377434645,63.77818022600768,0.19889794422461238,64.8459713474939,0.14375,100,0.476963375,0.0011345169828499738,9.221089740964094e-07,35.46600000000001,0.014966629547095255,1.0972225198627896e-05,62.84033333333333,0.15001074035622275,0.5499999999999972,-0.00025934034812834884
S040,14563.0,14592.984375,N3,-0.2725260416666668,27.243505229923397,-56.01,43.27,99.28,6.07,38.975223103226526,953.125,955.9000651041666,0.0,0.3234941073651883,0.04559597630883185,63.75920726111864,0.13287625966318128,64.45153217728807,0.12083333333333333,90,0.4776999416666667,0.0010307556151988168,-8.229754836630677e-08,35.492333333333335,0.013337499349161976,1.5729170933477335e-05,62.48966666666667,0.11001464548969046,0.38000000000000256,-0.00013607642580198146
S040,14593.0,14622.984375,N3,0.22045312499999994,28.031062241156587,-62.77,50.48,113.25,6.885,32.613057314759246,937.5,939.794921875,0.0,0.3295340117962872,0.09090593428863096,63.76591345026789,0.14772785658788368,64.8459713474939,0.13125,104,0.4775077999999999,0.0008844158580667862,1.2287373124830463e-07,35.539333333333325,0.01671991493864516,2.0625005594889054e-05,62.619,0.22329875354182666,0.8100000000000023,0.00039371538457991164
S040,14623.0,14652.984375,N3,0.015401041666666664,27.28157036935983,-58.3,48.84,107.14,6.24,65.42447197467457,968.75,974.4873046875,0.0,0.3283415290855274,0.04559597630883185,63.760865010112134,0.13696652483582722,64.8459713474939,0.12395833333333334,95,0.478436525,0.0010584411884346633,7.756056791465224e-08,35.57266666666668,0.017688665548563826,1.5694448701838186e-05,63.09433333333333,0.21356783985942784,0.6799999999999997,-0.00027475701897705635
S040,14653.0,14682.984375,N3,-0.33856770833333344,27.53628761101353,-58.17,45.98,104.15,5.994999999999999,42.920294518818636,953.125,956.8603515625,0.0,0.32714138285304106,0.045595976308831845,63.76044938515951,0.13651325642157383,64.8459713474939,0.12291666666666666,102,0.47888485833333333,0.0009999242662641359,1.3540476763367002e-07,35.61266666666667,0.0161107279647924,2.1111116837867663e-05,62.364000000000004,0.14103427479398972,0.5200000000000031,-0.00024145839883311576
S040,14683.0,14712.984375,N3,0.10581249999999989,27.131303464322848,-58.73,46.64,105.37,6.4350000000000005,28.81547921004601,953.125,942.1630859375,0.0,0.33767356648100244,0.09090593428863097,63.76881807411922,0.15250605415128735,64.8459713474939,0.1375,94,0.479653375,0.0011919342617673885,9.731194046005213e-07,35.643333333333324,0.015129074290545512,1.618055994481134e-05,62.181333333333335,0.34112298205909375,1.1000000000000014,0.0004653473484557693
S040,14713.0,14742.984375,N3,0.043421875000000006,21.40061235760217,-52.08,44.67,96.75,3.315,78.69043832655315,968.75,966.11328125,0.032258047015004204,0.18483053424390916,0.11110243021644486,63.733102627202015,0.1162089090194879,64.8459713474939,0.04583333333333333,40,0.4802937583333333,0.0009273018745787204,2.22042377941181e-07,35.658333333333324,0.0073409051818483515,-1.979167203549885e-06,63.38666666666666,0.23678870093162985,0.769999999999996,-1.2500003390842283e-05
S040,14743.0,14772.984375,N3,-0.09080729166666655,27.525514912008404,-95.94,60.97,156.91,5.505,98.6650608502341,968.75,949.5686848958334,0.05581428468591173,0.04559597630883185,0.12478714516015751,63.71828148906831,0.0988470865641943,64.45153217728807,0.016666666666666666,15,0.480869975,0.0010410792834241805,1.099457112482943e-06,35.66299999999999,0.010049875621121696,1.7361115820579676e-07,62.339666666666666,0.40509655913401943,1.3900000000000006,-0.000727743252968547
S040,14773.0,14802.984375,N3,0.12178645833333324,26.17046558913916,-91.21,93.76,184.97,5.890000000000001,43.016811426080004,953.125,963.8671875,0.1511529762268088,0.1400296037649023,0.07210109366946756,63.72272400674436,0.12856318921064877,65.79513659838392,0.020833333333333332,16,0.4819263916666667,0.0009242367778860814,4.5085580806636227e-07,35.672,0.009797958971134243,1.3888892656494319e-06,60.93433333333334,0.2240339755979493,0.8000000000000043,-0.0002301736735497163
S040,14803.0,14832.984375,N3,0.012098958333333373,26.311141580544493,-53.28,44.89,98.17,5.095,24.715500202293416,937.5,941.3411458333334,0.06441510347391795,0.09636964965693294,0.05589199343873463,63.71711360094837,0.06659101920688486,64.45153217728807,0.015625,14,0.48271620833333334,0.0008582361650097054,-1.7624462246219423e-07,35.693999999999996,0.018726095873584734,1.7361115820615602e-05,61.784666666666666,0.3766141556317585,1.3800000000000026,0.0006757640722016259
S040,14833.0,14862.984375,N3,0.033442708333333265,25.740644100734464,-55.8,46.61,102.41,5.71,74.46430075722508,984.375,995.8740234375,0.06441510347391796,0.11557806855349137,0.07880950133074056,63.72262932732078,0.0819752780433339,64.45153217728807,0.023958333333333335,23,0.4834314416666667,0.0011653898760774863,6.168237350324815e-07,35.718666666666664,0.014079141387960417,4.791667966488492e-06,62.85966666666666,0.21790645291551664,0.7800000000000011,-7.253474189852965e-05
S040,14863.0,14892.984375,N3,0.11092708333333322,27.202236501858014,-59.56,45.74,105.30000000000001,6.44,51.64279016882647,968.75,968.8151041666666,0.07880950133074055,0.11110243021644486,0.03225804701500421,63.71950884450608,0.06633964308697761,64.45153217728807,0.019791666666666666,17,0.48412530000000004,0.000809049510227898,3.2970191235403356e-07,35.744666666666674,0.012578641509410772,1.1527780904890285e-05,61.48633333333334,0.4075739878298852,1.2299999999999969,-0.0007057293581080071
S040,14893.0,14922.984375,N3,-0.4481770833333332,28.75904461552588,-59.89,51.02,110.91,5.8100000000000005,39.51781271097619,953.125,952.1402994791666,0.05581428468591173,0.11557806855349137,0.045595976308831845,63.71896287311509,0.06470735079251745,64.45153217728807,0.01875,18,0.48444555000000006,0.0010992658675225068,5.893491182045166e-07,35.763999999999996,0.01724335620850361,1.6875004577638846e-05,61.33433333333334,0.40955002407791724,1.2700000000000031,0.0006099654432414953
S040,14923.0,14952.984375,N3,0.43682291666666656,27.992141756472915,-64.16,48.09,112.25,6.215,36.00545806334635,921.875,925.1383463541666,0.05581428468591173,0.09636964965693294,0.0,63.71575253556458,0.05365469873077986,64.66065264130884,0.011458333333333333,11,0.48559845,0.0009085673048817002,1.3343753619724482e-07,35.80133333333334,0.012310790208413696,1.3402781413515884e-05,63.090333333333334,0.49760414878584874,1.4799999999999969,0.0008930210755808042
S040,14953.0,14982.984375,N3,-0.036755208333333414,28.423600570991066,-56.37,47.53,103.9,6.055,30.65597416706884,937.5,938.0289713541666,0.05581428468591172,0.12801909579781012,0.0,63.718661910232896,0.06324056795313827,64.66065264130884,0.01875,16,0.4866339249999999,0.0008458885088325638,7.088869110478812e-08,35.832333333333345,0.021553550880435726,3.2048619804855845e-05,64.01633333333332,0.08773001513481862,0.36000000000000654,0.00015031254077488534
S040,14983.0,15012.984375,N3,-0.09977083333333331,28.29429558139737,-56.04,45.72,101.75999999999999,5.210000000000001,28.499343148780458,953.125,945.0602213541666,0.05581428468591173,0.11110243021644485,0.06441510347391795,63.72008676907987,0.0758318815899979,64.8459713474939,0.01875,18,0.4872423999999999,0.0011265033688365002,1.0591604435656477e-06,35.87133333333334,0.01944793619441843,2.1597228080844572e-05,64.185,0.17906702655709686,0.5800000000000054,-0.00028197924315843123
S040,15013.0,15042.984375,N3,0.13358854166666667,27.76445509751546,-57.78,44.99,102.77000000000001,5.665,43.349399889358914,921.875,931.7545572916666,0.06441510347391796,0.12401959270615269,0.06441510347391796,63.72191630549164,0.076967672339038,64.45153217728807,0.023958333333333335,23,0.48771210000000004,0.000946168795723043,-4.164363108822445e-07,35.89399999999999,0.014966629547095066,1.0277780565803625e-05,63.624,0.0918186618649314,0.30000000000000426,3.034723045443447e-05
S040,15043.0,15072.984375,N3,-0.05583854166666658,27.791093209819003,-59.51,46.91,106.41999999999999,6.135,36.169633862298646,937.5,933.6832682291666,0.07880950133074055,0.13928372696486196,0.0,63.721646083307206,0.07032377790578152,64.26507605223851,0.026041666666666668,22,0.4886621583333334,0.000949899056003972,7.975368916929573e-07,35.92133333333333,0.009910712498213887,1.1875003221302644e-05,63.925,0.1559219890415269,0.3999999999999986,0.00027072924010666967
S040,15073.0,15102.984375,N3,0.04338541666666676,27.935809585275802,-57.6,49.92,107.52000000000001,4.305,53.92294546866729,921.875,906.3232421875,0.04559597630883185,0.1529193630552463,0.03225804701500421,63.72176907603715,0.06997013788534417,64.45153217728807,0.027083333333333334,25,0.49013521666666665,0.0010778669149708983,3.8776225796502083e-07,35.94866666666667,0.015434449203720441,1.4583337289316667e-05,64.09100000000001,0.025993588953176487,0.0799999999999983,-7.291668644643357e-07
S040,15103.0,15132.984375,N3,-0.01815104166666672,28.95084064820231,-56.62,51.91,108.53,5.215,37.262353404716244,937.5,941.4632161458334,0.04559597630883185,0.14282613750835507,0.03225804701500421,63.7205222011793,0.06652374776167766,64.45153217728807,0.023958333333333335,23,0.49091422500000004,0.0010932436939562003,7.474496385225792e-07,35.964000000000006,0.013808210118137964,8.26389113061222e-06,63.97666666666666,0.12199271380792276,0.3400000000000034,-0.00018958338476111433
S040,15133.0,15162.984375,N3,-0.16218749999999993,28.140286251547096,-56.98,54.95,111.93,5.35,38.99060223588517,921.875,929.8177083333334,0.045595976308831845,0.11987768650679832,0.06441510347391795,63.72034485906517,0.07177075872380212,64.45153217728807,0.020833333333333332,20,0.49143709166666666,0.0009227620223711893,1.4818688915660112e-07,35.98366666666667,0.011967548714011548,1.2743059012332267e-05,63.87866666666666,0.06417337627258059,0.18999999999999773,1.5416670848705338e-05
S040,15163.0,15192.984375,N3,0.11679687499999995,28.515078956879528,-55.47,55.5,110.97,5.68,46.24988312463054,953.125,949.9593098958334,0.0,0.14994211846205482,0.04559597630883185,63.720156996505736,0.06397140502077706,64.45153217728807,0.023958333333333335,21,0.49205599166666675,0.0009351848880999823,-1.3755190363278944e-07,35.99966666666667,0.012775845264490908,1.979167203549738e-06,63.971999999999994,0.089606547379827,0.27999999999999403,0.00010444447277681999
S040,15193.0,15222.984375,N3,0.12043229166666665,27.990765937749433,-55.88,52.97,108.85,4.795,76.07411254126716,921.875,897.0540364583334,0.16457014715109583,0.20171788261496962,0.0911919526176637,63.72607410379574,0.13685509685289432,66.19667665374146,0.030208333333333334,22,0.49310200000000015,0.0009421792823024751,2.859961713314248e-07,36.00633333333333,0.015380362660078903,5.243056977825754e-06,63.89133333333333,0.08670768260207513,0.3199999999999932,-4.2222233675734277e-05
S040,15223.0,15252.984375,N3,-0.13252083333333328,27.62322559345787,-58.3,48.55,106.85,4.665,41.121533618483404,937.5,940.7796223958334,0.0,0.16532992583014122,0.06451609403000842,63.723055343014956,0.081195757601983,64.45153217728807,0.03125,29,0.4934649250000001,0.0009852857298139471,5.045606837458393e-07,36.013,0.017916472867168617,4.1319455653062585e-06,63.52666666666666,0.07426678635537833,0.30999999999999517,-0.00012472225605529756
S040,15253.0,15282.984375,N3,-0.14333333333333328,28.917407422068266,-59.69,47.97,107.66,4.585,28.345370260255418,921.875,923.1770833333334,0.0,0.1592592172022985,0.03225804701500421,63.72144450446852,0.06777608185404535,64.45153217728807,0.027083333333333334,26,0.4938385500000001,0.0009333149508606384,2.2072792445961403e-07,36.03266666666666,0.01651934892448428,1.4027781583056918e-05,63.99999999999999,0.20081500607939357,0.6900000000000048,0.00030652786092878395
S040,15283.0,15312.984375,N3,0.16800520833333332,30.198718309412122,-67.01,54.12,121.13,7.145,44.61837187909294,937.5,951.904296875,0.0,0.1529193630552463,0.0,63.719841118696095,0.0610148189031266,64.10928169929842,0.023958333333333335,21,0.49473525,0.0009536067782372405,8.061851145250461e-07,36.05733333333334,0.013148721948877925,1.3125003560385675e-05,64.21533333333333,0.07172788083366621,0.20000000000000284,-0.00010548613972605573
S040,15313.0,15342.984375,N3,-0.29008854166666675,29.48292946496176,-59.36,47.89,107.25,5.28,46.226387497378305,937.5,942.9768880208334,0.08507936450096985,0.16827350421923892,0.0,63.72596105261202,0.08423926821007074,64.66065264130884,0.035416666666666666,28,0.49633649166666666,0.0011337210341454702,8.995677353427997e-07,36.07333333333334,0.009067647005825045,5.347223672750314e-06,63.61300000000001,0.24333995424782423,0.75,-0.0004294792831703783
S040,15343.0,15372.984375,N3,-0.002145833333333321,30.39045909045687,-62.06,52.3,114.36,5.65,35.92079898667538,953.125,945.5973307291666,0.07198059875565237,0.17399263633843817,0.04559597630883185,63.72718431878344,0.08623881454568592,64.45153217728807,0.03854166666666667,36,0.5080671999999999,0.0040148069206376435,-1.959093413382317e-07,36.09533333333334,0.014544949486180276,1.5972226554965383e-05,63.44199999999999,0.1430943744526671,0.38000000000000256,0.00021840283702333966
S040,15373.0,15402.984375,N3,0.3036874999999999,29.566619888155582,-56.46,54.46,110.92,5.26,49.66630580950223,921.875,926.2532552083334,0.08507936450096985,0.18998355191963326,0.03225804701500421,63.73005700328884,0.09487372777695022,64.8459713474939,0.04479166666666667,36,0.509529425,0.0021469545860066464,3.103735650969789e-07,36.11266666666667,0.009977753031397661,8.47222452046025e-06,63.746,0.22996521476084072,0.6499999999999986,0.000396875107659262
S040,15403.0,15432.984375,N3,-0.14746874999999998,29.356644184229232,-56.58,50.62,107.19999999999999,5.145,36.52691521409816,921.875,922.2819010416666,0.07198059875565237,0.18483053424390916,0.03225804701500421,63.72807468272673,0.0865865624948292,64.45153217728807,0.041666666666666664,36,0.5101698499999999,0.002069091751832187,2.0227800626031e-06,36.132666666666665,0.01339983416149341,1.0416669492368099e-05,64.38166666666666,0.15950095785152998,0.5700000000000074,0.0002795486869435458
S040,15433.0,15462.984375,N3,0.2119166666666666,29.573379215121644,-60.69,51.13,111.82,5.925,57.45773752561529,921.875,923.046875,0.045595976308831845,0.2021987428181051,0.0,63.72847818931707,0.08431690462346736,64.26507605223851,0.04479166666666667,41,0.5110449916666666,0.0014411798609463137,-4.225196458657824e-08,36.151999999999994,0.011661903789688849,9.583335932978391e-06,64.56666666666666,0.1838356754157249,0.5,-0.0003029861933013764
S040,15463.0,15492.984375,N3,0.09823958333333328,29.94542928786072,-59.8,75.94,135.74,4.955,44.35284890002675,921.875,922.6318359375,0.11613999424784249,0.17116012950028855,0.11178398687746927,63.728048934371664,0.09325065682664964,64.66838485689897,0.040625,30,0.5098391416666667,0.001416456837181151,9.162708648738299e-07,36.16399999999999,0.010198039027186512,8.958335763438664e-06,64.90633333333334,0.12023541722618776,0.5,-2.326389519962541e-06
S040,15493.0,15522.984375,N3,-0.018223958333333266,29.855681369259678,-59.82,54.93,114.75,5.83,53.37311827881125,953.125,950.3173828125,0.03225804701500421,0.17950549357115012,0.032258047015004204,63.72493178987377,0.07736305708492706,64.45153217728807,0.035416666666666666,34,0.5118455833333333,0.002106486923700747,1.4356557713909915e-06,36.17933333333334,0.010624918300340463,-1.3888892656497281e-06,64.84133333333334,0.12648407892783317,0.519999999999996,-0.00011638892046140292
S040,15523.0,15552.984375,N3,-0.29466145833333335,29.71605969929486,-57.47,69.73,127.2,5.24,40.77831502968197,921.875,925.3987630208334,0.04559597630883185,0.20912350152216008,0.045595976308831845,63.73126458509231,0.09616505753920934,64.8459713474939,0.04895833333333333,43,0.5126246166666667,0.001526214353574071,1.114178253629069e-06,36.192,0.014696938456699627,1.6666671187791217e-06,64.16266666666667,0.058191255547739955,0.29000000000000625,-1.2777781243968604e-05
S040,15553.0,15582.984375,N3,-0.04268229166666668,31.281153413821897,-58.68,58.34,117.02000000000001,5.84,22.126552826627922,921.875,929.2154947916666,0.045595976308831845,0.19249988726547926,0.03225804701500421,63.72605100641342,0.08420091841244834,64.26507605223851,0.040625,33,0.5192642166666667,0.0020211505064497847,2.1359163780155821e-07,36.205999999999996,0.018184242262647473,1.3958337119774126e-05,64.259,0.15408547411528586,0.5099999999999909,0.00022781256179810674
S040,15583.0,15612.984375,N3,0.2736145833333333,30.926311494647305,-60.17,57.45,117.62,5.25,51.33745745713434,921.875,928.8655598958334,0.0,0.21358993356949718,0.0,63.729400492606295,0.08522237377856128,64.10928169929842,0.04791666666666667,41,0.5268745333333333,0.004469150827120919,6.212714792945638e-06,36.233333333333334,0.015563490039905306,1.770833813702715e-05,64.59333333333333,0.11677138157765962,0.3399999999999892,4.6250012546116706e-05
S040,15613.0,15642.984375,N3,-0.02929166666666665,29.27730361379096,-57.81,52.94,110.75,5.27,41.41679785392345,937.5,938.1103515625,0.05581428468591173,0.19982631347136326,0.03225804701500421,63.7278757920082,0.08858351073843476,64.26507605223851,0.04479166666666667,41,0.5309090666666666,0.0020115319565500857,-1.0676465569787773e-06,36.23466666666666,0.011175369742827509,-4.791667966490194e-06,64.42766666666667,0.10932164571676703,0.480000000000004,-0.00017225699117214444
S040,15643.0,15672.984375,N3,-0.24956770833333322,29.8175392014813,-56.25,54.54,110.78999999999999,5.58,30.199207374383,921.875,924.7233072916666,0.06441510347391795,0.20453835214941965,0.03225804701500421,63.72928495265037,0.09191168165531703,64.26507605223851,0.04791666666666667,39,0.5297991666666666,0.0019914139170169663,1.0636834482648153e-06,36.24666666666667,0.013743685418727683,4.375001186795711e-06,64.19366666666666,0.044308263588434274,0.15000000000000568,8.298613362252777e-06
S040,15673.0,15702.984375,N3,0.23772395833333337,30.63378839507477,-57.33,59.25,116.58,5.109999999999999,25.06501961565826,921.875,922.265625,0.032258047015004204,0.2200827456448041,0.0,63.73122527820108,0.0894867169885568,64.26507605223851,0.052083333333333336,40,0.5356590416666668,0.003922318679462934,-3.0710305639731264e-06,36.258,0.013266499161423102,1.4583337289318566e-05,64.66333333333334,0.2076107468851781,0.6499999999999915,0.00034111120364344445
S040,15703.0,15732.984375,N3,-0.24184895833333336,29.449938537501282,-61.2,54.96,116.16,5.165,54.35427673960338,921.875,925.4720052083334,0.06441510347391795,0.2021987428181051,0.045595976308831845,63.73117471651964,0.09614703556467713,64.66065264130884,0.04791666666666667,39,0.5371107666666667,0.0037246565607523554,1.7520473502732538e-06,36.27466666666667,0.01117536974282563,1.1805558758009566e-06,64.92366666666668,0.034106043778519564,0.12000000000000455,-1.05902806505755e-05
S040,15733.0,15762.984375,N3,0.2314427083333333,28.60842479810815,-55.54,50.6,106.14,5.0600000000000005,32.66372457217601,937.5,923.6002604166666,0.08533405557962581,0.24816820222829156,0.045595976308831845,63.73895621596163,0.11012341437103461,64.66065264130884,0.06770833333333333,54,0.5382634583333332,0.008308813009786493,9.181095155462017e-06,36.281333333333336,0.009910712498210366,1.0416669492367046e-06,64.88866666666667,0.0937632953535425,0.269999999999996,-0.0001201389214786584
S040,15763.0,15792.984375,N3,0.015494791666666667,30.969386997568765,-56.03,54.62,110.65,5.23,42.70783400825199,937.5,942.4641927083334,0.032258047015004204,0.2263462809256845,0.05581428468591173,63.734784994654824,0.10254276403037176,64.66065264130884,0.057291666666666664,48,0.5528547833333334,0.004296339267685397,-6.529599861545092e-06,36.28800000000001,0.009451631252504438,2.5694451414510295e-06,64.79966666666668,0.2420121668199527,0.6099999999999994,-0.00038732649395792514
S040,15793.0,15822.984375,N3,-0.15926562500000008,29.607340245077346,-60.06,51.78,111.84,4.29,39.91878317555552,937.5,935.6770833333334,0.09636964965693294,0.23437268517375387,0.0,63.73874367474217,0.11480315987063162,64.66065264130884,0.06354166666666666,52,0.5485531416666666,0.002833901254736531,1.0105339112776445e-06,36.30466666666667,0.015434449203720238,6.944446328245728e-06,64.195,0.19569959972706516,0.6199999999999974,-0.00034871537237287774
S040,15823.0,15852.984375,N3,0.17607291666666663,31.328087838213968,-59.16,59.11,118.27,4.904999999999999,29.302298714896825,921.875,928.3772786458334,0.03225804701500421,0.21358993356949718,0.0,63.729978403343225,0.08695425659168865,64.26507605223851,0.04895833333333333,47,0.5565159166666668,0.003863879923046552,5.303825223476762e-07,36.312333333333335,0.012565384549980215,5.520834830955394e-06,63.918666666666674,0.30789319937637705,0.8300000000000054,0.0004842362424685968
S040,15853.0,15882.984375,N3,0.05576041666666664,31.617442244894928,-62.74,59.48,122.22,4.1850000000000005,38.28675020802274,906.25,907.1858723958334,0.05581428468591173,0.22219509383022437,0.05581428468591172,63.73510481540646,0.1068371150455472,64.8459713474939,0.05625,45,0.5658020916666667,0.005393255879639298,-8.233376799418525e-07,36.328333333333326,0.007781745019952019,4.2013900285885566e-06,64.59400000000001,0.37359157734973886,1.0600000000000023,0.0006369446172267286
S040,15883.0,15912.984375,N3,-0.13801562499999986,31.48349946912942,-57.48,61.24,118.72,4.595,41.62104015843146,906.25,913.4928385416666,0.0,0.2263462809256845,0.04559597630883185,63.733438514056374,0.09608247322882278,64.45153217728807,0.05625,47,0.57216385,0.0071288868844184465,6.537940141585201e-07,36.333999999999996,0.006633249580712479,-4.166667796944352e-07,65.36066666666666,0.059044239534627556,0.2600000000000051,5.5416681699404634e-05
S040,15913.0,15942.984375,N3,-0.38848437499999994,31.041078912412676,-61.09,54.29,115.38,3.81,57.10109979502329,906.25,921.0693359375,0.03225804701500421,0.2263462809256845,0.045595976308831845,63.734012858787636,0.09989952898717429,64.66065264130884,0.05625,47,0.5644465416666667,0.00286016247177158,-3.016582849550409e-07,36.344333333333346,0.013337499349160323,1.177083652637616e-05,65.747,0.0673374586195014,0.23000000000000398,-3.371528692363264e-05
S040,15943.0,15972.984375,N3,0.360515625,30.172264500675354,-59.79,55.42,115.21000000000001,4.585,32.93678924096082,890.625,891.6666666666666,0.09636964965693294,0.232399078305449,0.032258047015004204,63.73757763071904,0.1087325529165322,64.26507605223851,0.06666666666666667,54,0.5681398583333335,0.013599533177831167,2.02168490171574e-05,36.35566666666668,0.01605891929392518,1.1284725283398045e-05,65.74166666666666,0.14505362992891746,0.4100000000000108,0.0002327431186911653
S040,15973.0,16002.984375,N3,-0.20004166666666676,28.32034660581088,-61.01,58.6,119.61,3.51,69.33661327719267,921.875,923.7874348958334,0.03225804701500421,0.19249988726547926,0.032258047015004204,63.72700991463686,0.08215233680171573,64.45153217728807,0.040625,37,0.60170935,0.012701149607843895,1.9189049042168247e-05,36.35466666666668,0.01606929439092259,-1.347222587679542e-05,66.02466666666668,0.12093340683569867,0.3299999999999983,-0.00014791670679163853
S040,16003.0,16032.984375,N3,-0.12968229166666662,32.28100797187584,-61.51,61.99,123.5,3.565,36.9152645249528,906.25,913.2649739583334,0.07880950133074056,0.34977516339865466,0.0789470638395684,63.76765613137301,0.14996614384235418,64.8459713474939,0.140625,101,0.5970763416666667,0.054780130227345486,-7.053090954071982e-05,36.365,0.014999999999998202,2.2569450566799937e-06,65.748,0.14302447343025065,0.45000000000000284,-0.0002485417340879302
S040,16033.0,16062.984375,N1,0.3868385416666668,30.44216968722167,-146.49,113.11,259.6,2.725,105.96775608114729,906.25,938.1429036458334,6.2842871146957116,7.20901482508282,2.6321412039836183,64.16650463035654,0.6425017684273457,70.90133990271269,0.028125,15,0.5493643833333333,0.008799606327542285,-2.549859198638023e-06,36.38066666666666,0.018961950204436896,-1.6041671018248027e-05,65.546,0.3369925815207217,1.0500000000000114,0.00040041677528666815
S040,16063.0,16092.984375,N1,-0.09236979166666665,15.28436306936507,-33.97,28.41,62.379999999999995,1.6,84.00241391936905,921.875,917.333984375,0.05581428468591172,1.3868038168352756,0.5789680414803183,64.32543338441616,0.19915213708125448,65.24568951279464,0.084375,60,0.5244194,0.008269940966536573,-2.3411061038156793e-06,36.33433333333333,0.014985177861992199,-1.4895837374089354e-05,64.49233333333333,0.29381040750040743,1.0699999999999932,-0.00033121536762569767
S040,16093.0,16122.984375,N1,-0.12141666666666696,43.87302606757812,-218.74,212.5,431.24,1.0750000000000002,99.7298034175884,781.25,766.4388020833334,27.297798114519086,15.759851278688796,13.767239035468304,63.883146056510405,2.6912094411050167,89.45948803788227,0.042708333333333334,16,0.46295915833333334,0.0785811872369373,-0.00011223336573170727,36.30933333333334,0.018245242911204492,-2.8402785482525106e-05,66.277,1.2793543944766308,4.61999999999999,0.0021849658704877033
S040,16123.0,16152.984375,N1,0.4231979166666668,47.64964962688598,-104.07,83.2,187.26999999999998,4.84,230.36048185184703,1203.125,1104.0934244791667,0.4984306970103489,0.4609725151483788,0.40463889937682573,63.46684425248855,0.3248291299933368,64.45153217728807,0.057291666666666664,42,0.3536797666666667,0.007180461072397943,-1.2722000412869033e-05,36.27066666666666,0.013148721948876965,-8.819446836872733e-06,69.83466666666666,1.6504337477025728,5.549999999999997,-0.0023647228636943557
S040,16153.0,16182.984375,N2,0.007239583333333322,51.20689520612369,-111.65,84.05,195.7,6.32,116.4429290355794,1140.625,1152.2786458333333,0.18679264722026812,0.3976370636334093,0.3781752147557473,63.224194053984064,0.3822013747146362,64.35060217278468,0.175,125,0.32974882499999997,0.00644842864278125,-1.1343221610031901e-05,36.268,0.009451631252505591,-5.208334746184827e-06,60.85766666666667,3.2093516306084138,11.259999999999998,-0.005734202944390988
S040,16183.0,16212.984375,N2,-0.10251041666666663,53.188338192082185,-103.61,87.4,191.01,7.265000000000001,109.62469723595751,1062.5,1063.6800130208333,0.32790998246046466,0.11632669960790026,0.47981726664950275,63.490314844842686,0.4027562158609956,64.35060217278468,0.0020833333333333333,2,0.31267059166666666,0.004255923572888015,-7.280037782128304e-06,36.272,0.013012814197294838,2.4305562148854203e-06,52.68866666666666,0.8189006180375142,2.8000000000000043,0.0006274307257570326
S040,16213.0,16242.984375,N2,-0.4121458333333336,54.29231609210828,-103.72,91.68,195.4,6.74,63.443993714723305,1046.875,1044.8893229166667,0.44111108924573134,0.254795584597841,0.3146988612370386,63.643411182243554,0.2950363048997756,63.796551630946325,0.0,0,0.3003849416666667,0.0034756685814766515,-5.808102487006973e-06,36.285999999999994,0.014966629547095255,1.347222587679727e-05,54.92999999999999,0.5623522028053239,2.4299999999999997,0.0009514585914329945
S040,16243.0,16272.984375,N1,-0.3738958333333332,84.30399865176413,-445.41,491.57,936.98,6.619999999999999,73.63530926865886,984.375,1003.3528645833334,24.61946179967295,5.210840125901804,4.245430550080351,63.36994132686335,1.8544751000117792,82.915619758885,0.05520833333333333,21,0.30465447500000004,0.011386598380671391,5.254161798546501e-06,36.30600000000001,0.009521904571391357,-7.222224181376675e-06,56.60466666666667,0.3281232830642909,0.9600000000000009,-0.00033354175714565837
S040,16273.0,16302.984375,N1,1.0418489583333337,67.96702611352633,-288.59,167.47,456.05999999999995,8.48,80.31880091364425,1078.125,1090.3971354166667,0.7366137565840655,0.45499613665942257,0.5043979755196619,62.727142290625835,0.39711885489624654,63.914004725099176,0.25416666666666665,121,0.3011214833333334,0.0028698238534311193,-4.330854039402685e-06,36.297333333333334,0.013148721948877926,-2.569445141450783e-06,56.90333333333333,0.31787139258231756,1.0899999999999963,-0.00054270848055243
S040,16303.0,16332.984375,N2,-0.26150000000000045,60.09969779059487,-131.74,119.81,251.55,7.035,112.21161336740337,1062.5,1055.9651692708333,0.4999902342796308,0.49994682877004254,0.34820347459814677,62.58824692458652,0.4042650619555346,63.694583757176716,0.06458333333333334,52,0.2937245416666666,0.0021291043809382806,-3.0688886363087755e-06,36.29466666666667,0.013349989596333814,-9.236113616567192e-06,56.651,0.3804676946426159,1.0399999999999991,0.0004936459672433728
S040,16333.0,16362.984375,N2,-0.296067708333333,64.57443595948011,-122.34,107.27,229.61,7.035,65.51611157067876,1031.25,1036.7106119791667,0.4558598027049788,0.49808225977241954,0.24025946261281778,62.6364800395881,0.35577603013050024,63.694583757176716,0.023958333333333335,23,0.2883019416666667,0.0020757455580097516,-2.7633946298270997e-06,36.30800000000001,0.013012814197295457,-6.250001695421698e-07,56.17666666666667,0.44486951894784704,1.490000000000002,0.0006575001783583375
S040,16363.0,16392.984375,N2,0.46677083333333336,64.73800119914101,-115.8,113.37,229.17000000000002,8.215,41.90377481957651,1000.0,1007.4869791666666,0.4274629918191749,0.4924682290231749,0.17310168314702584,62.66020314043693,0.34758797329275204,63.694583757176716,0.017708333333333333,17,0.2842781333333333,0.0016261833841510298,-1.764273482062037e-06,36.31066666666667,0.01314872194887658,2.9861119211449706e-06,57.035,0.4711386915406828,1.7199999999999989,0.00028454868829988326
S040,16393.0,16422.984375,N2,-0.9187343749999997,66.67525865554336,-119.57,113.66,233.23,4.855,48.18693592946986,1015.625,1023.828125,0.3232256586177665,0.48812282152024905,0.16451739185333028,62.72033341724941,0.29471912459426863,63.694583757176716,0.0125,12,0.280851725,0.0017524891010716672,-2.0452082370899e-06,36.321000000000005,0.014224392195567695,1.4548615057674928e-05,58.90033333333334,0.24465599431764512,0.9100000000000037,0.00030711813886668263
S040,16423.0,16452.984375,N2,0.11017187499999999,61.971888515425896,-112.45,114.08,226.53,6.04,51.830757608638926,1015.625,1001.07421875,0.22791085839643532,0.4990224819584785,0.23927516412420796,62.69606066483728,0.27160408264892755,63.45864795282043,0.023958333333333335,21,0.2781829833333333,0.0014460687453882995,-5.585105681723608e-07,36.32399999999999,0.01113552872565919,6.250001695417263e-07,59.36966666666667,0.289948079643389,0.8999999999999986,8.975696879257993e-05
S040,16453.0,16482.984375,N2,0.1418697916666666,60.56715919981,-118.96,112.69,231.64999999999998,7.880000000000001,45.362001908409006,1000.0,999.7477213541666,0.3872296884243539,0.49352469367184554,0.32714138285304106,62.6985835334832,0.3402174228777781,63.45864795282043,0.11875,89,0.2763470833333333,0.0015413099817110922,-1.5110889515757817e-06,36.329333333333324,0.00727247474309042,-9.722224859543062e-07,59.48033333333333,0.3753885394568619,0.980000000000004,0.0006523960103070784
S040,16483.0,16512.984375,N2,-0.13513020833333317,60.10360896925308,-119.32,105.64,224.95999999999998,8.27,60.067192089310396,984.375,1000.7975260416666,0.43597825625890513,0.4924682290231749,0.3726779962499649,62.70459034598551,0.37496605465212374,63.45864795282043,0.10520833333333333,71,0.27402049166666664,0.001568253497768734,-8.023967020390361e-07,36.322333333333326,0.01256538454997956,-5.520834830955295e-06,59.964666666666666,0.22373694871929908,0.6700000000000017,0.00029034730098396886
S040,16513.0,16542.984375,N2,0.3232083333333334,54.8548071552524,-159.25,103.3,262.55,5.555,86.78373206574307,937.5,925.5208333333334,0.6373638198775398,0.42096609910683097,0.5213653532765888,62.650608938712054,0.3724239634790684,64.66065264130884,0.2625,134,0.27173624166666666,0.0016395322503478052,-1.6075740037906897e-06,36.31366666666666,0.015162087220725158,-1.2048614379506637e-05,60.15566666666667,0.307274940222741,1.3000000000000043,0.000340382036778982
S040,16543.0,16572.984375,N2,0.33372395833333335,57.501584748422815,-111.39,105.68,217.07,7.220000000000001,106.36473519436423,1015.625,1008.2275390625,0.2559004221209232,0.4112552241309525,0.49903444095962846,62.684894101790086,0.3720570485324203,63.45864795282043,0.03958333333333333,34,0.26984680833333324,0.0013630328334015152,-9.190252058987664e-07,36.29600000000001,0.010519822558707212,-6.736112938399226e-06,62.04633333333334,0.30582656668263636,1.1700000000000017,0.00044420150938626025
