participant_id,window_start_time,window_end_time,sleep_stage,BVP_mean,BVP_std,BVP_min,BVP_max,BVP_range,BVP_median,SDNN,median_nni,IBI_mean,x_std,y_std,z_std,mag_mean,mag_std,mag_max,movement_density,burst_count,EDA_mean,EDA_std,EDA_trend,TEMP_mean,TEMP_std,TEMP_slope,HR_mean,HR_std,HR_range,HR_trend
S044,4510.0,4539.984375,W,0.08097395833333317,32.177252374208216,-338.94,156.95,495.89,-0.35,35.281859751619656,781.25,762.548828125,4.6092750695382305,5.102260592231806,6.206976571546104,64.56098324023391,1.4336961745443022,73.81734213584231,0.065625,24,0.21568979166666666,0.006646026214834237,1.1188695526447353e-05,32.29600000000001,0.050767443635990145,7.090279701139306e-05,87.30766666666665,1.5709502078536912,5.329999999999998,0.0023997575954203543
S044,4540.0,4569.984375,W,0.04664583333333314,48.68396116257111,-406.21,307.61,713.8199999999999,0.745,32.828513784122265,781.25,799.7395833333334,16.439891797627755,17.21571472037491,16.698068204760492,63.55018004278035,5.882940721289185,145.72920091731788,0.046875,15,0.19658234166666666,0.022388400310017625,-2.8272061705745897e-05,32.220666666666666,0.08221651631853283,-8.375002271864881e-05,84.92733333333332,2.7207412388701884,8.670000000000002,-0.004829237421125602
S044,4570.0,4599.984375,W,0.008802083333333263,98.98481329499067,-591.65,706.82,1298.47,0.445,16.85984240805072,828.125,820.5729166666666,16.996751630009253,7.858464714238434,4.7058916972946445,63.45140855580102,2.308724890097204,98.28021163998376,0.020833333333333332,6,0.18347389999999997,0.003978439454107604,-1.0080093880233807e-06,32.00933333333333,0.09193959369547376,-0.00015902782091683433,74.494,1.999309214037021,6.569999999999993,-0.0031762508616131877
S044,4600.0,4629.984375,W,0.14337499999999997,142.00352319523407,-796.96,559.36,1356.3200000000002,-0.685,0.0,781.25,781.25,10.259081131354904,10.89125695599903,8.034599658145181,62.80063897950544,1.250647338709885,69.13754406977442,0.10729166666666666,53,0.17405915833333332,0.005981003491605503,-8.25681842904146e-06,31.756666666666668,0.08299933065325794,-0.00014305559436186905,69.89866666666667,1.4511184958124157,5.180000000000007,-0.002587847924220899
S044,4630.0,4659.984375,W,-3.2737291666666675,124.1887965779052,-394.04,502.08,896.12,-10.940000000000001,0.0,781.25,781.25,0.8315860588441156,0.5826037103669468,0.776856395593806,62.155197075431424,0.3875906529833692,63.51377803280167,0.19791666666666666,97,0.1668646,0.002970950502785264,-4.869914081465412e-06,31.521333333333335,0.056493854139681304,-9.979169373689666e-05,63.823,1.9387180472329297,6.420000000000002,-0.003463507883981086
S044,4660.0,4689.984375,W,3.374234375000001,126.9883330280666,-535.74,459.91,995.6500000000001,1.47,146.7345355155344,781.25,907.2672526041666,10.193256244854433,5.244404156488821,2.3937844499986953,62.44692062089124,0.7351450887009939,67.77905281132217,0.16041666666666668,66,0.15456716666666673,0.0031346944304385094,-4.29930021139871e-06,31.35533333333333,0.04470147897130769,-7.694446531696757e-05,65.70266666666666,2.1534513899526235,6.789999999999999,0.003784237137651132
S044,4690.0,4719.984375,W,-0.31650000000000006,8.704277435069878,-32.69,32.07,64.75999999999999,-0.245,0.0,1078.125,1078.125,0.42609642068694054,0.2870750936166354,0.5049225996102988,63.12034073386805,0.30903447552891733,64.00781202322104,0.05416666666666667,46,0.154684425,0.0009922009092794672,-5.957430001472989e-07,31.259333333333334,0.016918103387265668,-1.666667118779022e-05,72.00900000000001,1.4661658614677042,4.710000000000008,0.0021147575181091356
S044,4720.0,4749.984375,W,0.016718749999999998,10.859734326863853,-43.16,30.59,73.75,1.07,58.52236263168654,1093.75,1081.6324869791667,0.4292361897571339,0.3717436742904982,0.545017679376856,63.02383326608629,0.3300612799985597,64.00781202322104,0.196875,108,0.15005204166666666,0.00320334769003677,-5.327570672626599e-06,31.242666666666672,0.01412641340027776,-7.847224350917897e-06,67.32366666666665,2.4052698855268244,8.120000000000005,-0.004324897006536732
S044,4750.0,4779.984375,W,-0.055958333333333284,6.861757368616577,-59.23,21.85,81.08,0.955,59.83208345880514,937.5,955.7861328125,0.5401330452742381,0.13287273960657078,0.5241964336407362,63.04465219725803,0.33534210407814946,64.07807737440318,0.35104166666666664,183,0.14096805,0.0020645571431907642,-1.8525577942051307e-06,31.212000000000003,0.02650786046942749,-3.9097232828024555e-05,61.50533333333335,0.5760192898004569,2.200000000000003,-0.0007037501909044579
S044,4780.0,4809.984375,W,-0.06383854166666664,8.127785465160926,-34.12,41.03,75.15,-0.08,0.0,953.125,953.125,0.4822354178862113,0.333526961991081,0.8587775701137959,63.177608598148716,0.37801695613456665,65.09992319503918,0.051041666666666666,32,0.14225972500000003,0.001481903792212909,1.5531573223625561e-06,31.131333333333334,0.019275776393068014,-1.6666671187790814e-05,61.044999999999995,0.3014271609084577,0.9099999999999966,-0.00026725701694255
S044,4810.0,4839.984375,W,0.07974479166666668,5.5258959480448695,-22.61,23.23,45.84,0.04,0.0,953.125,953.125,0.8770752919267156,0.7158789275351587,0.6939095161954956,63.26951201742642,0.3833719821966252,64.5832795698701,0.03854166666666667,25,0.1356519,0.00388335313743162,-6.58458642160005e-06,31.111333333333334,0.01857118436957843,-2.40277842957309e-05,60.69666666666667,0.44175659461844924,1.2100000000000009,0.0005894446043415269
S044,4840.0,4869.984375,W,0.09662500000000067,79.29787613909893,-487.82,359.94,847.76,0.65,0.0,953.125,953.125,3.1550196997095843,2.0723868669697962,2.2694376444886566,62.72940384593711,0.7899218104744791,69.92138442565336,0.034375,18,0.12534070000000003,0.001754966484010452,-1.9650391615232126e-06,31.026666666666664,0.027848798098940832,-4.534723452344736e-05,63.419000000000004,1.034070758378427,3.5700000000000003,0.0017311463029368237
S044,4870.0,4899.984375,W,-0.11626562500000004,8.699187747180385,-34.76,44.52,79.28,-0.19,35.03438668184349,984.375,981.005859375,2.7051646126617177,1.1575818155630393,1.1042408583564949,62.594501406761324,0.3014857193205454,63.8200595424354,0.11458333333333333,58,0.123664875,0.0011080937953869261,-1.2362431738940921e-06,30.966000000000008,0.014966629547095446,-1.4166670509621688e-05,67.406,0.9395765003447044,3.289999999999992,0.0015022920741894748
S044,4900.0,4929.984375,W,0.01751041666666666,5.783309016209909,-19.49,22.87,42.36,-0.03,95.86645155320153,1046.875,988.5172526041666,0.7244422842876368,0.39842898956052664,0.6836889318656223,62.50669996224422,0.2974920110599503,63.25345840347388,0.196875,134,0.12160460000000001,0.0012674062056026076,-8.312046525620252e-07,30.957333333333334,0.015040685563570985,1.1736114294735615e-05,67.48800000000001,0.5028677758616067,1.5800000000000125,-0.000742639090342635
S044,4930.0,4959.984375,W,0.028036458333333316,3.529356549701488,-15.47,15.33,30.8,0.51,73.33522555771022,890.625,915.7063802083334,0.6707039212648157,0.11110243021644485,0.07905694150420949,62.4219036366524,0.2845107669004201,62.96824596572466,0.12291666666666666,17,0.12022752499999999,0.0009684878674382072,2.1933795012422763e-07,30.99333333333334,0.022558565754252514,3.36805646919951e-05,65.651,1.0541895781436403,2.8799999999999955,-0.0018567018925515107
S044,4960.0,4989.984375,W,0.005484374999999963,5.342033308539691,-23.76,17.74,41.5,0.34,71.75220144308335,890.625,874.2431640625,4.447628186390472,1.4905340060742958,0.675411397265071,62.45215030313652,0.44225465640521044,63.686733312362634,0.215625,45,0.11987524999999999,0.0012657867464545554,-1.108087540171319e-06,31.041333333333334,0.01687865186822919,1.409722604633923e-05,64.06400000000001,0.36805434381351854,1.3199999999999932,0.00040430566523048695
S044,4990.0,5019.984375,W,-0.015807291666666678,4.488792800588316,-12.18,12.15,24.33,0.38,76.74423369450868,890.625,882.3486328125,0.38255695835899894,0.19741988090108858,0.26731488597511527,62.24765950897466,0.1982481309479123,62.8728876384726,0.06145833333333333,22,0.117494725,0.0012260459409724402,-6.863693268145954e-07,31.067999999999998,0.01579029237643568,1.3958337119774312e-05,65.90799999999999,0.48679496025876595,1.9299999999999926,0.0008563891211993066
S044,5020.0,5049.984375,W,-0.0331562499999999,16.86603075330468,-177.16,154.17,331.33,-0.14500000000000002,27.853053669649317,937.5,926.904296875,10.440734227371044,3.747774802762597,3.0626105422226533,62.48177643643041,0.8729194395416032,71.74259543674177,0.1375,54,0.118391425,0.0020699317728792425,3.113264516402051e-06,31.09466666666666,0.021092389359408048,2.6319451584052057e-05,66.98966666666666,0.25754589666482636,1.0500000000000114,-0.00030496536050492824
S044,5050.0,5079.984375,W,0.016401041666666654,2.9167410137427208,-19.17,7.88,27.05,0.45,84.68534082879815,953.125,923.5921223958334,0.4883361774661204,0.0,0.5272263886894846,63.18562649856292,0.2823632130837174,63.56886030125127,0.20729166666666668,104,0.12302436666666665,0.001150439082360392,1.0889173960821909e-06,31.148,0.019561867668162505,2.9791674748177193e-05,65.17733333333334,0.3291294915716652,1.3500000000000085,-0.0005107640274424996
S044,5080.0,5109.984375,W,0.03418750000000002,3.379604061229227,-24.21,15.3,39.510000000000005,0.425,61.295727962406524,828.125,829.6142578125,0.8786728470951076,0.6422075642310324,0.6959424814594953,63.25258792116535,0.4827400355412393,68.70953354520753,0.065625,46,0.125009925,0.0009990682255857238,4.5841353581096507e-07,31.263333333333335,0.04511713150850229,7.833335458261438e-05,65.41833333333334,0.4553393118201958,1.5,0.0008048960516753626
S044,5110.0,5139.984375,W,-0.45631249999999995,37.5252055005789,-247.19,171.01,418.2,0.79,109.1162099542514,718.75,820.60546875,6.255225593231809,3.219728141560333,3.4849652277876295,63.053602598237084,1.2522776783079672,74.45804187594514,0.05520833333333333,25,0.12389971666666666,0.002168638440678598,-1.3680255447117914e-06,31.36933333333333,0.018245242911205467,2.1736117007410386e-05,66.91033333333333,0.1784466929428011,0.75,-6.354168390347221e-06
S044,5140.0,5169.984375,W,0.44599999999999984,35.60832472511402,-194.05,201.62,395.67,-0.01,0.0,937.5,937.5,1.2308917097135987,0.9461177986323316,1.2876276736858627,62.31126065694208,0.35137161138659334,63.686733312362634,0.12708333333333333,76,0.117686875,0.0013288124056370775,-1.0655543255084424e-06,31.353999999999996,0.020264912204761575,-2.4861117855121822e-05,67.80933333333334,0.5512345739842123,1.8800000000000097,0.0009222919168543623
S044,5170.0,5199.984375,W,-0.023973958333333212,25.082294963059205,-155.36,116.39,271.75,0.19,0.0,937.5,937.5,3.1510139461590594,1.646807464881335,1.750346877824031,62.57647988368909,0.5281638315160038,66.85057965343307,0.07291666666666667,41,0.116832875,0.0010704315995779439,7.6448588446341e-08,31.318666666666665,0.015216949614017932,-1.979167203550153e-05,68.49366666666668,0.24272732758293852,0.8199999999999932,0.00015781254280939296
S044,5200.0,5229.984375,W,0.08427604166666663,14.000108901988977,-148.94,63.83,212.76999999999998,-0.07,53.75717854432076,937.5,899.267578125,1.4568072372104997,1.287594387047239,1.2059058770795505,62.46312377124109,0.623199062859836,74.16872656315464,0.059375,41,0.11779362499999999,0.0013475469878171215,1.38580441238184e-06,31.293333333333337,0.01556349003990467,-7.43055757122314e-06,65.61,2.125125878624605,6.130000000000003,-0.00367187599606011
S044,5230.0,5259.984375,W,-0.06486979166666666,14.860234211356802,-74.12,97.12,171.24,-0.215,111.9421372808248,875.0,957.51953125,1.4260317749839548,0.9756385907303085,0.9716466550254893,62.490559665484156,0.37604657676734826,63.984373092185564,0.153125,93,0.11861559999999999,0.001150525332185261,-6.282683995953806e-07,31.278,0.014236104336041446,-7.3611131079406825e-06,61.899666666666675,1.1448245377446369,3.749999999999993,0.0016862157351930699
S044,5260.0,5289.984375,W,-0.06578645833333341,18.613394351308326,-172.08,69.29,241.37,0.195,0.0,1109.375,1109.375,4.913981324404603,0.7064159097160821,1.3296155851097213,62.20495106693978,0.4022077733714431,63.93746945258312,0.16041666666666668,85,0.12000335,0.001133562361539941,6.455040813541904e-07,31.270666666666664,0.010934146311237585,-5.9027793790090365e-06,66.41566666666667,1.7750487004273683,4.799999999999997,0.003129966126835429
S044,5290.0,5319.984375,W,0.04747916666666666,6.243726192779381,-23.83,26.85,50.68,-0.48,0.0,1109.375,1109.375,0.9149931456558689,0.7986289249220956,1.235688910419339,62.1092744919714,0.4152072746833889,63.31666447310692,0.14270833333333333,75,0.12047304999999998,0.0009621722805714195,-7.567020281852316e-07,31.28333333333334,0.011925695879998624,6.666668475116088e-06,69.05366666666667,0.7014484221159025,2.260000000000005,-0.0009705905410673117
S044,5320.0,5349.984375,W,0.038411458333333336,5.176530825058938,-21.3,42.2,63.5,-0.175,202.51217840148615,765.625,850.4964192708334,0.5042140129283729,0.2588515467674259,0.2943625410196677,62.14115544185945,0.23876491365795538,62.91263784010332,0.014583333333333334,14,0.11944824999999998,0.0010360801067002528,-7.311265004140921e-07,31.298,0.015143755588800408,2.0555561131607937e-05,69.03033333333333,0.2693756154929805,1.1499999999999915,0.00022795145072467687
S044,5350.0,5379.984375,W,0.0064635416666666504,4.886227822892876,-17.43,32.2,49.63,-0.445,77.50194909437477,500.0,568.2779947916666,0.22219509383022437,0.07198059875565237,0.04559597630883185,62.23333865358031,0.06533270328075186,62.8728876384726,0.0020833333333333333,2,0.11792172499999999,0.0009684878674382025,-4.867690122528777e-07,31.321999999999996,0.012220201853215583,1.0416669492369122e-05,71.912,1.0593878735697637,3.4299999999999926,0.001881319954785142
S044,5380.0,5409.984375,W,-0.034401041666666674,4.498414831406235,-12.12,18.72,30.839999999999996,-0.38,137.06197520086621,500.0,527.3274739583334,0.4205599359451899,0.5788480838412325,0.2852702635464988,62.23602258767904,0.40747286114493075,69.61321713582845,0.008333333333333333,8,0.11867965,0.0011173619948342632,8.111890221324391e-07,31.340666666666667,0.014360439485693254,5.000001356337164e-06,74.48,0.894725283723073,2.6699999999999875,0.0015725004265680406
S044,5410.0,5439.984375,W,-0.015458333333333364,4.316967890672482,-18.71,16.47,35.18,0.5,54.7697139561276,859.375,875.1708984375,0.3861985312705831,0.487418752132656,0.50600131065926,62.12241637977366,0.2544762032626108,62.8728876384726,0.015625,14,0.1177189,0.0009839547703019667,-1.1064195709688381e-07,31.361333333333338,0.01687865186822999,2.090278344802112e-05,75.40066666666667,1.0189534936503333,3.1299999999999955,-0.0016927087925099787
S044,5440.0,5469.984375,W,0.32569270833333336,11.913612117524298,-133.09,100.11,233.2,0.2,66.41500527502853,953.125,909.7412109375,10.294377542346842,2.330802198576466,3.7646033653313182,62.22718006680466,0.6199281679895882,70.58328414008518,0.08229166666666667,24,0.11938419999999998,0.0019399150909253742,2.7743887734344562e-06,31.378666666666664,0.015216949614017445,8.958335763437242e-06,70.98533333333333,1.32369617191996,4.269999999999996,-0.0023685423091748883
S044,5470.0,5499.984375,W,-0.3555625000000001,24.319456296953415,-170.85,164.04,334.89,0.255,50.92710756928243,796.875,815.7552083333334,8.153751945572697,1.99783710086614,3.577994448127796,62.769745160593416,0.6620114355709482,72.89032857656768,0.08333333333333333,47,0.12177539999999999,0.0013202519608014214,-2.0738417083988995e-07,31.389333333333333,0.014126413400277761,9.375002543132e-06,67.66833333333334,0.5307735445136242,1.5999999999999943,-0.0006971876891242655
S044,5500.0,5529.984375,W,0.020744791666666696,3.5047090668416456,-19.34,9.18,28.52,0.46,68.04141548641428,890.625,889.55078125,0.5851895689408879,0.2832030950670482,0.5636523689789261,62.92478675133932,0.33129135989290986,63.7808748764079,0.05625,44,0.1262053833333333,0.0013731201403090075,1.5779665738841662e-06,31.415333333333333,0.014544949486180642,1.847222723313416e-05,68.44566666666667,0.22155034541962645,0.8299999999999983,-1.0590280650574864e-05
S044,5530.0,5559.984375,W,0.03750520833333333,8.179997553418412,-58.08,47.37,105.44999999999999,0.49,45.22503709793327,828.125,841.69921875,1.9758953227306573,1.1911056371661117,0.7305930988188067,62.97367539650673,0.4239678314105405,65.26101439603893,0.06145833333333333,36,0.1285746583333333,0.002224946892609021,2.384013884552366e-06,31.468666666666667,0.018571184369578955,2.6527784973900105e-05,68.643,0.6413327269574415,1.7800000000000011,0.001104340577349334
S044,5560.0,5589.984375,W,-0.02725520833333333,9.259390155937307,-82.76,38.52,121.28,0.16,14.054020338355087,734.375,747.36328125,1.273977922989205,1.1501735980083856,1.2188034176327753,63.084888236656525,0.7555359037719591,66.2872536767062,0.009375,7,0.13054928333333335,0.0012438924135104647,-7.905475234775173e-07,31.510666666666665,0.015902480589169484,1.368055926664487e-05,69.65599999999999,0.6770947742623139,2.1099999999999994,0.0011642364269304547
S044,5590.0,5619.984375,W,-0.008348958333333378,7.883163793087439,-58.99,51.02,110.01,-0.06,52.63360776497515,765.625,797.1272786458334,2.062048561705891,1.6555409908009593,0.5072349814325594,63.00740735449444,0.37908020013453586,64.13267497929586,0.16875,98,0.12984471666666667,0.0011207790905090158,4.1754655423897364e-07,31.55666666666667,0.011925695879998623,9.305558079849538e-06,71.40933333333334,0.16964538176901667,0.5700000000000074,-1.59722265549594e-06
S044,5620.0,5649.984375,W,0.05048958333333333,8.260367272018932,-34.4,45.12,79.52,0.125,40.846574154651464,875.0,863.6067708333334,6.021822294787517,2.7091593291708285,1.7915588630358261,62.781773388051924,0.38047810006318045,64.66838485689897,0.07708333333333334,53,0.13054937500000002,0.002288830636891901,-2.8002479384353054e-06,31.56,0.013416407864998451,-2.986111921145749e-06,70.74600000000001,0.46752967820235775,1.3300000000000125,-0.0007938196597818086
S044,5650.0,5679.984375,W,-0.03986458333333344,20.897239570056353,-144.52,130.17,274.69,0.31,4.875421652532017,875.0,874.4873046875,3.369279488382247,2.412676078418941,2.262350123565586,62.86231876978217,0.6189067401146877,66.01514977639603,0.1125,58,0.129674025,0.001626308296226452,3.863405995932589e-07,31.577333333333332,0.01671991493864558,1.6180559944813008e-05,66.521,2.4968838579317225,7.530000000000001,-0.0044835776051371555
S044,5680.0,5709.984375,W,-0.03265104166666665,3.8527902366200455,-12.26,16.05,28.310000000000002,0.21,91.50544025841131,828.125,898.5595703125,0.7563504295114946,0.645899694171282,0.8369705778961939,62.60741040388133,0.3349067332431828,65.03076195155643,0.08020833333333334,50,0.12956718333333334,0.0012984236018042069,1.5756024239372816e-06,31.609333333333336,0.019652537297311146,2.4097228759013363e-05,61.991,0.34232878932394767,1.3299999999999983,-0.00019795144258665293
S044,5710.0,5739.984375,W,0.047343750000000004,4.893819063642348,-21.86,36.36,58.22,0.565,133.74479701616582,843.75,828.9713541666666,0.9579114787085844,0.6588045518209478,0.7833381815009544,62.598588735736634,0.37917229255299423,63.75735251718032,0.1625,84,0.129898075,0.0009852857298139441,-4.828770841137923e-07,31.702666666666673,0.03076072532015796,4.9236124467264255e-05,64.19333333333333,2.4283757717636885,7.0,0.004348473401821127
S044,5740.0,5769.984375,W,-0.0001874999999999923,2.95884684502996,-15.21,10.93,26.14,0.395,71.03241823914638,906.25,889.6321614583334,1.009105678724153,2.4268597894192405,0.9079073685847887,62.78044103497103,2.1981465953220045,125.38341198101126,0.0010416666666666667,1,0.130303725,0.001096515298285896,6.902612549536841e-07,31.835333333333338,0.044100894422777176,7.569446497788325e-05,67.46766666666666,0.46613791473721156,1.2600000000000051,-0.0007187154727418296
S044,5770.0,5799.984375,W,0.05485416666666666,26.918601541258898,-126.51,251.91,378.42,-0.335,73.74264064356409,718.75,760.7096354166666,3.304189654186535,1.7290408463260458,1.1545201023224614,62.99014680033192,0.36336080228198925,65.86349520030045,0.12083333333333333,79,0.13323935,0.0017422175603236298,2.2439745670504004e-06,31.975000000000005,0.025527762664727584,3.760417686745232e-05,67.734,0.2398555120622967,0.9599999999999937,5.930557164322246e-05
S044,5800.0,5829.984375,W,-0.08288020833333333,6.355935233620878,-20.35,30.26,50.61,-0.36,20.10149626711283,718.75,715.5354817708334,0.2919474095287636,0.11110243021644486,0.47081028704658623,63.16219540140995,0.29330940564734026,64.10148204214939,0.34270833333333334,184,0.13504342500000002,0.0011654342943190734,1.1856481080859638e-06,31.980000000000004,0.013904435743076185,-1.5138892995576578e-05,67.44433333333333,0.4751188155492157,1.3500000000000085,0.0008056599407714695
S044,5830.0,5859.984375,W,0.046921874999999995,3.712288385402794,-8.83,7.94,16.77,0.545,119.74353652673933,906.25,858.0729166666666,0.4717715118306743,0.3518906647391425,0.421264991078458,63.19416400946742,0.35755206315365784,64.10148204214939,0.03125,30,0.13534232499999999,0.0009427300352566445,-5.095645913532381e-07,31.94466666666667,0.01627540748764459,-1.9583338645653514e-05,67.4,0.572980511594125,1.9899999999999949,-0.0009497919243142131
S044,5860.0,5889.984375,W,-0.00022916666666667658,3.6412119161504424,-8.46,12.04,20.5,0.815,52.831449601439815,906.25,897.2330729166666,0.34519896637865083,0.436561493377508,0.42266002064964164,63.05871033394086,0.2941955474515545,64.10148204214939,0.20729166666666668,139,0.135897425,0.0011575855019716618,1.3302054389663102e-06,31.931333333333335,0.01146976702272326,-6.250001695421333e-06,67.085,0.32693271479006236,0.980000000000004,-0.000542743202784073
S044,5890.0,5919.984375,W,-0.002838541666666668,3.9346923342998337,-24.68,10.61,35.29,0.835,39.6359002597229,890.625,890.5029296875,1.1532332078106415,0.6727553986322881,1.8191899405863468,63.13133280430337,0.3614577231456332,64.38167441127949,0.33958333333333335,169,0.136858175,0.001259423814438565,-4.856570327845654e-07,31.928000000000004,0.013012814197295147,2.84722299458083e-06,66.51299999999999,0.07716432681837442,0.25,3.0243063759512642e-05
S044,5920.0,5949.984375,W,-0.0437135416666666,14.549248674445643,-86.08,134.53,220.61,0.295,32.729576930617824,859.375,872.7294921875,2.080160083316239,2.206048346150998,2.0906535457277204,62.915465521946864,1.5543722709557415,107.40577265678041,0.0010416666666666667,1,0.13397592500000002,0.00149293605669332,-7.814435713551355e-07,31.932666666666666,0.016918103387265668,1.1666669831453155e-05,65.72966666666667,0.6087937983331368,1.8700000000000045,-0.0007072571363002224
S044,5950.0,5979.984375,W,0.13783854166666668,9.415793893826189,-95.98,54.3,150.28,-0.06,159.04621772061077,828.125,740.4215494791666,0.9664488799207126,1.6726114681132283,2.19293348012745,62.91058678654142,0.3949516928787411,64.38167441127949,0.17604166666666668,100,0.133645,0.001563076645593557,5.554337444210438e-07,31.935333333333336,0.017838784213679154,-1.6388893334660382e-05,67.512,1.060419413879873,3.5799999999999983,0.0018969449590236973
S044,5980.0,6009.984375,W,-0.06536979166666666,23.739089078562404,-100.32,169.52,269.84000000000003,0.03,0.0,828.125,828.125,2.257129666544929,1.3311179511974136,1.3167255887396079,62.91111750650843,0.4228404927248584,64.29618962271404,0.15416666666666667,93,0.13482992500000002,0.002082008169862691,-1.7916769183151332e-06,31.944,0.014742229591663675,-3.2638897742755857e-06,73.343,1.8788190439741663,5.269999999999996,0.0031551744670069632
S044,6010.0,6039.984375,W,0.08632291666666671,5.7870957310114965,-29.25,31.54,60.79,0.195,0.0,828.125,828.125,2.7353442726520836,1.447213558302068,1.1837656010646234,62.801490330112046,0.46536256493641304,65.83312236253116,0.10520833333333333,54,0.13341015,0.0017078665572871927,1.2498649223808933e-06,31.93933333333333,0.014360439485691705,-3.1944453109931255e-06,74.89933333333333,0.3859268785088118,1.710000000000008,-0.00044902789958439044
S044,6040.0,6069.984375,W,-0.14788020833333332,6.459545644514529,-57.38,23.35,80.73,0.235,6.444156427451339,828.125,829.0283203125,1.5248288696103647,0.5286907308520632,1.223963209210146,62.637123763958,0.33865160850260906,63.7102817447859,0.08645833333333333,60,0.132460075,0.0011031464632472916,-4.951088582652085e-07,31.947333333333336,0.017688665548561754,1.4444448362751526e-05,71.93766666666667,0.5918991092707921,2.0700000000000074,-0.000959479426942121
S044,6070.0,6099.984375,W,0.01923958333333339,8.539280118522862,-65.09,70.76,135.85000000000002,0.2,80.51375948161622,703.125,739.7216796875,1.2300050107169842,0.745530664843655,0.8571840758731787,62.52163935354542,0.427965199364849,64.69930447848725,0.08958333333333333,63,0.132364,0.001010466426953418,-5.076186272837005e-07,31.978666666666673,0.02077391526784394,2.4236117685579008e-05,71.55166666666666,0.2059786936122822,0.769999999999996,-0.00015996532117114874
S044,6100.0,6129.984375,W,0.02240104166666668,9.125257029233875,-95.08,31.63,126.71,0.275,173.55981357149778,765.625,846.142578125,6.86659808572144,3.0785278924146517,1.7918979986316186,62.8381399881159,0.9108354227213298,76.43951857514541,0.0125,7,0.13633510000000001,0.0022899305753668565,3.2897912569963186e-06,32.09166666666667,0.047964106950463575,8.357641156044034e-05,72.347,0.2178554566679488,0.710000000000008,0.0002292014510637633
S044,6130.0,6159.984375,W,-0.0065052083333333455,6.252649315571324,-19.69,24.37,44.06,0.49,87.38447426962956,859.375,839.9983723958334,0.5112440148386418,0.32499332258097585,0.6244129187128944,63.03026359006073,0.25706050027227095,64.22616289332565,0.053125,42,0.1392387,0.0015300667828562291,1.9192765623037594e-06,32.218666666666664,0.05308693080431737,9.354169204147738e-05,71.216,0.24566372680285337,0.9899999999999949,-0.0004095834444399542
S044,6160.0,6189.984375,W,-0.031114583333333338,6.137103832037062,-20.03,22.92,42.95,0.29,75.07724316419046,796.875,790.9505208333334,0.5011434408070098,0.16827350421923892,0.5678669503183724,62.986014862779584,0.2948418316846692,64.22616289332565,0.06875,61,0.1406905,0.0009548010263924124,-1.0675002895779939e-07,32.428666666666665,0.06776101796428094,0.00011993058808881025,69.69633333333333,0.784374414563749,2.469999999999999,-0.0013773962069759697
S044,6190.0,6219.984375,W,0.021515624999999986,6.243365415647039,-16.65,14.72,31.369999999999997,0.685,84.05776806653871,921.875,892.6106770833334,0.9998041257819231,1.3690111844918904,1.309578428244075,62.851263991485,0.3706274040877839,63.92182725798755,0.18333333333333332,72,0.13997527499999998,0.002697017148513338,4.2413676870029595e-06,32.64966666666666,0.049965543683177883,8.600696777532754e-05,67.417,0.8770790538296235,2.539999999999992,-0.001549549031453188
S044,6220.0,6249.984375,W,-0.022666666666666658,5.219370978357663,-13.07,10.67,23.740000000000002,0.88,48.59350915149289,921.875,906.7220052083334,0.422274759158326,0.04564354645876384,0.3409529511978971,62.957017613174095,0.26294788042458467,64.22616289332565,0.004166666666666667,4,0.143135075,0.000985285729813943,7.047169880417136e-07,32.742,0.01681269361722593,1.347222587679749e-05,64.94333333333333,0.523846881784702,1.5,-0.0008579863438548032
S044,6250.0,6279.984375,W,-0.007812499999999989,5.139761577058844,-14.61,13.42,28.03,0.48,53.914784786275916,859.375,866.3167317708334,0.6629584367732934,0.4977717275100439,0.7722333850861841,62.840236688415025,0.3392191189282129,63.7808748764079,0.296875,120,0.14402109999999999,0.0010292383057387547,-4.092084443382247e-07,32.798,0.029143323992526043,4.631945700940152e-05,64.98333333333333,0.6225717272375593,1.9300000000000068,0.0010086808291777459
S044,6280.0,6309.984375,W,0.04242187499999991,9.980259615816857,-53.42,43.26,96.68,0.39,118.07560716145765,1140.625,1055.9651692708333,0.6142751699157308,1.2095970403402945,1.0752825855973343,62.86685860789616,1.1586473901889633,74.26977851050857,0.0010416666666666667,1,0.144010425,0.0010674466236655505,4.078184700028369e-07,32.88533333333333,0.018926759422103617,1.062500288221485e-05,66.40433333333333,0.8128045412165364,2.660000000000011,-0.0010303822239535127
S044,6310.0,6339.984375,W,-0.023994791666666595,19.196751798534986,-134.99,65.55,200.54000000000002,0.735,0.0,1140.625,1140.625,1.1877188212131222,0.7123164663714359,0.8266161568910526,63.040424442330355,0.37177878391779096,65.24568951279464,0.10416666666666667,82,0.14296427500000003,0.002000273968579053,-2.088019446619862e-06,32.83766666666667,0.017829438827087974,-1.7673615905387182e-05,63.869,0.5024629339563259,1.4799999999999969,-0.0008968405210613374
S044,6340.0,6369.984375,W,0.09548958333333335,40.290243296168796,-234.59,211.87,446.46000000000004,0.04,0.0,1140.625,1140.625,0.8565895514902234,0.45904773868181603,0.7445104364147995,62.88472256175973,0.3567819088848627,63.76519426771944,0.05416666666666667,45,0.141918125,0.0014782080737754772,1.430283591114259e-06,32.80266666666667,0.020319667538836603,-1.4583337289317553e-06,63.635,0.9910154724658274,3.1500000000000057,0.0015143406885689806
S044,6370.0,6399.984375,W,2.74140625,86.94178220463562,-377.89,455.49,833.38,0.27,0.0,1140.625,1140.625,1.0468781094481185,0.5971930508056466,0.7379559560404372,62.80183772911489,0.3354268612632548,63.984373092185564,0.2552083333333333,144,0.142302425,0.0011575855019716696,-9.365647071844392e-07,32.91566666666666,0.044920918166138565,7.49652981134175e-05,67.34200000000001,0.6705589708096783,2.1300000000000097,0.001121666970938308
S044,6400.0,6429.984375,W,-2.497552083333334,264.3369065348302,-1482.92,1214.48,2697.4,1.71,0.0,1140.625,1140.625,2.663983024637273,1.0978983829913407,1.322718160959973,62.94511041077738,0.42025830356204796,64.73020933072904,0.08125,50,0.14086130000000002,0.0023961511241989766,-2.124992763941184e-06,32.93999999999999,0.025690465157331227,-3.756945463581257e-05,66.58500000000001,0.44814246246775835,1.8699999999999903,-0.0005099654161147498
S044,6430.0,6459.984375,W,-0.37320312500000036,43.23349605871286,-297.79,163.94,461.73,0.34,263.33688009263795,1140.625,1043.7174479166667,9.582640316880747,2.7499045122310863,3.198571288861725,62.47329568056135,0.6814764430911779,69.31810730249349,0.09791666666666667,45,0.13477655000000002,0.0025683082754023104,-4.0036820756516e-06,32.86833333333333,0.021147629234081148,-2.0659727826530696e-05,64.81833333333334,0.23538738755978908,0.9899999999999949,-0.0003630209318090648
S044,6460.0,6489.984375,W,0.16105208333333276,38.3758315848741,-376.54,183.51,560.05,0.495,0.0,328.125,328.125,4.266583251137717,2.8980864660894015,3.7883570720769653,62.19391044284792,0.6172888251688706,63.75735251718032,0.10625,67,0.13055993333333332,0.0013753134111499426,-1.8956441774208396e-06,32.85033333333334,0.019745604292825465,1.7326393588972777e-05,65.232,0.7212045479612571,2.819999999999993,0.0009650002617730757
S044,6490.0,6519.984375,W,-0.08290104166666672,23.63601998871371,-199.74,139.81,339.55,0.325,0.0,328.125,328.125,1.7494266794002034,0.7555236410743361,1.2230408795520924,62.03465991788028,0.5081934076752798,65.06919393998976,0.109375,77,0.13093355833333334,0.0015877926753611617,2.1662983307012688e-08,32.96000000000001,0.028982753492379484,4.312501169840857e-05,71.112,2.1185646084082492,7.469999999999999,0.0037354871244268447
S044,6520.0,6549.984375,W,-0.12928645833333383,94.44959659379408,-442.71,452.44,895.15,2.675,0.0,328.125,328.125,1.0542387162466258,0.6251527591095014,1.0572973111507786,62.0439503523184,0.3903733414518825,64.38167441127949,0.15,83,0.12896950833333332,0.0016616567384984187,1.6740336572356856e-06,32.98866666666667,0.012840906856172766,-1.2361114464278465e-05,80.95133333333334,2.3167041723582718,7.489999999999995,0.003941389958059344
S044,6550.0,6579.984375,W,1.3132968749999998,127.6580966790762,-454.29,469.53,923.8199999999999,7.83,0.0,328.125,328.125,1.0370711128247454,0.5059702158971415,0.6585146111177453,62.0809004207276,0.32966339151117197,63.3798075099633,0.07083333333333333,38,0.13392255,0.0017253917663823531,2.498061875559327e-06,32.946666666666665,0.01719172927763764,-2.4791673391839672e-05,78.57966666666668,3.196551770615052,10.010000000000005,-0.005622744580822639
S044,6580.0,6609.984375,W,2.707401041666667,157.81272279708892,-871.33,619.78,1491.1100000000001,-5.535,0.0,328.125,328.125,1.476655365245504,0.707688891892711,0.71406686875639,62.1161409650945,0.3559470061326937,63.0158710167526,0.09895833333333333,76,0.13626037500000002,0.001097761692889209,1.0438707258763831e-06,32.90066666666666,0.017688665548561827,-1.5555559775270478e-05,65.247,3.763465734311039,11.669999999999995,-0.006718647655883151
S044,6610.0,6639.984375,W,-7.709484375000002,139.17672188921495,-498.64,797.58,1296.22,-0.635,0.0,328.125,328.125,8.868823897585795,2.9516457200343718,1.6507938825632753,62.35195842013406,0.861170428664788,76.68767828015137,0.05416666666666667,27,0.13575865,0.0013534957064948471,-4.876029968541085e-07,32.87266666666667,0.012092238098144673,1.805556045344188e-06,60.860666666666674,0.9092961869245664,2.25,0.001485486514075118
S044,6640.0,6669.984375,W,3.8900052083333345,150.72423673975337,-598.14,940.11,1538.25,-2.97,0.0,328.125,328.125,20.944013264493123,20.718177991936347,10.612615126649457,63.052363815055514,2.914125197586737,85.49853799919622,0.0375,14,0.1464119,0.013213710974085462,2.0098877413974985e-05,32.85066666666667,0.03345976024354507,-4.715279056879034e-05,73.28133333333332,7.519984367596045,24.29,0.01355055923138
S044,6670.0,6699.984375,W,0.05035937500000071,144.80925447638444,-1339.29,805.61,2144.9,1.585,100.59856216230209,906.25,884.1715494791666,16.007361553826744,14.291146583102497,18.167168260468294,64.07047222487819,4.737989786232713,88.95504482602435,0.09479166666666666,38,0.15548523333333333,0.009611616259101391,-7.062293582436432e-07,32.855,0.048218253804964833,9.479169238055893e-06,90.28333333333333,1.7651691766576436,6.719999999999999,0.0031595841904254
S044,6700.0,6729.984375,W,-0.10600520833333332,15.860762970626274,-84.54,57.49,142.03,1.47,38.481188053391506,828.125,835.6852213541666,0.6906996251788633,0.5424633564173303,0.41686323488312355,63.22626647332062,0.4039630898803066,66.85057965343307,0.29583333333333334,145,0.157289125,0.0009042298432229525,9.582483068164926e-07,32.88766666666666,0.01584999123729106,-3.6458343223285616e-06,85.268,5.844327392152724,19.419999999999987,-0.01050548896090738
S044,6730.0,6759.984375,W,0.2804791666666665,130.97618829461737,-988.66,627.54,1616.1999999999998,-1.52,58.99810238299143,953.125,930.8186848958334,18.590506369739725,6.781281601948893,7.3014570433987505,62.893044742494595,1.3214284008495267,71.2320152740325,0.05520833333333333,25,0.15490879166666668,0.005735030116014843,-4.863112647328738e-06,32.901999999999994,0.021664102412362843,1.3611114803362482e-05,70.07566666666668,1.9652288812134708,6.929999999999993,-0.0035287162350033166
S044,6760.0,6789.984375,W,-0.36824479166666696,72.18162117254175,-270.93,662.54,933.47,-3.37,13.547668594137582,937.5,936.0921223958334,13.056431338828983,7.335132059233077,3.9298183446849326,62.15015804696336,0.8033397397587507,65.83312236253116,0.18958333333333333,13,0.13544894999999998,0.009243790318235266,-1.3410408585722815e-05,32.90533333333333,0.017650936393164722,2.3541673052753877e-05,63.24100000000001,1.6444418505985545,5.330000000000005,-0.0025147576266161082
S044,6790.0,6819.984375,W,0.01874479166666663,36.1281718956025,-151.37,161.4,312.77,-0.5549999999999999,33.0531744718254,937.5,933.7239583333334,1.2620237688156097,0.7467805612073884,1.1459393890312581,61.76533280901965,0.36645325901400105,62.8728876384726,0.25625,132,0.12886274166666667,0.0012635664175646654,-1.5065123444315044e-06,32.90866666666666,0.015434449203720115,-5.000001356338397e-06,65.94833333333334,1.6420801509738256,5.499999999999993,0.0029260771826381243
S044,6820.0,6849.984375,W,0.015890625000000016,21.143755442370853,-89.95,116.96,206.91,-0.35,0.0,937.5,937.5,0.7615744610490968,0.6959074000001724,1.1469459560248105,61.74280755121543,0.36612706388211547,63.13477647065839,0.159375,91,0.12615210833333332,0.0008265083564392397,-3.807442439084875e-07,32.893333333333324,0.016397831834998277,-1.7569449210461882e-05,71.71033333333334,1.6321937861527207,5.030000000000001,0.002665729889792176
S044,6850.0,6879.984375,W,-0.6423125,20.793723877006183,-118.39,94.26,212.65,-0.09,83.20173522075063,781.25,841.357421875,0.995615387586994,0.6911644763247987,1.0694376239861876,61.74077432334329,0.35165459472977495,62.81719509815764,0.15,92,0.12491384999999999,0.0010057187119170085,-6.416121532151044e-07,32.87466666666667,0.014996295838935575,-3.7500010172527757e-06,71.17933333333333,0.8941287503610557,2.530000000000001,-0.0015657643136296419
S044,6880.0,6909.984375,W,0.562703125,24.7697896942061,-94.57,121.4,215.97,-0.42,74.7968394581305,609.375,653.3854166666666,3.539100632919408,1.1759673913657451,1.3714284422536316,61.67647932785609,0.379722776781306,62.96824596572466,0.14895833333333333,80,0.11722785,0.0025134128247265718,-3.970322691602294e-06,32.872,0.015362291495736658,-1.2638892317407387e-05,68.06633333333335,1.3833087949630836,4.030000000000001,-0.002411632598641654
S044,6910.0,6939.984375,W,0.10568749999999996,19.632778579092598,-103.17,124.82,227.99,0.19,0.0,609.375,609.375,4.2769930173935675,0.8421177627795823,1.9284015761476883,61.77639653705103,0.4303071349209701,63.671029518926424,0.140625,61,0.113224725,0.0012408281304737557,-9.999475368781271e-07,32.873000000000005,0.01810156530984639,-3.819445480532846e-07,66.31966666666666,0.519047096985321,1.5,0.0007476043694673309
S044,6940.0,6969.984375,W,-0.1051874999999999,75.65237533700783,-511.29,500.55,1011.84,0.88,91.28629161623394,906.25,874.8616536458334,9.203758054533425,6.76803018897588,7.063141486968143,61.86699513382589,2.751688229281087,84.77027781009096,0.041666666666666664,11,0.12045160833333333,0.008575370465559914,7.545386812442169e-06,32.875,0.014999999999999857,3.472223164201238e-08,69.76533333333333,1.7606717152521336,5.180000000000007,0.0031184730681621834
S044,6970.0,6999.984375,W,-0.45812500000000017,76.8001135410741,-487.69,541.2,1028.89,-1.24,80.26834200000991,906.25,866.6666666666666,1.71269260879535,0.7647819905408046,1.3928571349079162,61.647203252919624,0.3571266253731662,63.671029518926424,0.15416666666666667,83,0.12340866666666667,0.0013686630053531164,1.1489269609719416e-06,32.928666666666665,0.01783878421368075,2.2916672883213974e-05,73.48166666666665,0.5573274521220801,1.6500000000000057,0.0009450349785793675
S044,7000.0,7029.984375,W,0.7076041666666668,157.84336166384483,-1092.83,1021.77,2114.6,-3.5300000000000002,0.0,750.0,750.0,5.197663132594354,1.6542230783831895,1.8651125296517337,61.7792820160499,0.7037851812692579,75.24626236564843,0.052083333333333336,30,0.1305173,0.001876679716946926,-2.832865785825135e-06,32.949333333333335,0.01671991493864622,5.7638904524448216e-06,72.68833333333333,1.6164963827845578,4.840000000000003,-0.002506910402265192
S044,7030.0,7059.984375,W,0.18513020833333182,159.18765448259657,-1066.11,507.51,1573.62,-1.0,0.0,750.0,750.0,9.147964823755428,1.0632023822187173,3.8353798884711394,61.76727292031589,0.627359004514337,69.87131027825369,0.041666666666666664,29,0.12424102499999999,0.004879038063427568,-6.6927780742128056e-06,32.95466666666667,0.0123107902084119,2.847222994580447e-06,68.22433333333333,0.9199155154445184,2.4199999999999875,-0.0016025351569377044
S044,7060.0,7089.984375,W,1.2679999999999987,189.147145484012,-997.27,1552.05,2549.3199999999997,3.92,0.0,750.0,750.0,2.4074392804157885,1.4784035590234939,1.9815859665198312,62.001088369117966,0.45120140900982747,64.56779382943171,0.09895833333333333,58,0.126333075,0.0033525460428419163,4.3303594646157375e-06,32.95466666666666,0.009910712498210955,2.9861119211455876e-06,70.83433333333333,3.843819006607303,11.299999999999997,0.006542397608072268
S044,7090.0,7119.984375,W,-1.6175104166666672,104.21409113149947,-440.31,724.44,1164.75,0.13,0.0,750.0,750.0,1.9708484737790528,1.4067900197691985,1.7157204992647324,62.12823758934753,0.3829848233527638,63.4428877022476,0.175,79,0.12695237499999998,0.001651688434413403,-1.3643057086332767e-06,32.949333333333335,0.014126413400277843,-3.6805565539699334e-06,78.09666666666665,1.6397425272144266,5.829999999999998,-0.002591459036311587
S044,7120.0,7149.984375,W,-0.04039583333333356,78.0252026654795,-492.6,498.51,991.11,0.935,0.0,750.0,750.0,4.209545514363754,2.0162092714767703,2.6958486282410017,62.24390417845841,0.5169390256303846,66.7233092704491,0.10416666666666667,67,0.11960820833333334,0.005747719221418519,-7.759826974779454e-06,32.94266666666667,0.015040685563572362,6.45833508526934e-06,68.23166666666667,3.9998242322493227,12.780000000000001,-0.0071912866729835784
S044,7150.0,7179.984375,W,-0.18855208333333337,21.521822173653664,-93.86,130.93,224.79000000000002,1.505,63.3758194114051,789.0625,816.4225260416666,2.093354803084566,0.4194684446316155,0.5674311249810168,62.366416094932305,0.3353134957572385,63.671029518926424,0.028125,23,0.115466475,0.0017289216290436648,9.065412615400542e-07,32.95,0.012649110640673249,4.16666779694731e-06,61.519666666666666,0.9522936638570172,3.759999999999998,0.0013708684274274154
S044,7180.0,7209.984375,W,0.2106770833333333,21.050607373459755,-120.37,64.36,184.73000000000002,0.1,78.7278966142581,843.75,863.6881510416666,3.7560691627758342,1.5717969938673872,2.157577087588967,62.110151318893216,0.6381442973089042,64.60650122085238,0.0375,29,0.11494339999999999,0.002247740329753416,-3.1546857515966116e-06,32.94666666666667,0.013743685418725672,-5.763890452443539e-06,66.21266666666666,1.0303589450068134,3.819999999999993,0.00129083368349438
S044,7210.0,7239.984375,W,0.03607291666666669,25.907711267491056,-193.2,158.77,351.97,-0.03,80.44567415124172,734.375,773.9420572916666,0.8418825785355502,1.3473723785163805,1.6921374037162453,61.94807577557602,0.49103567775115425,63.796551630946325,0.18854166666666666,124,0.110086275,0.0020608833298794466,-3.0015105798368532e-06,32.93866666666666,0.011175369742828553,-3.958334407100881e-06,63.08933333333333,1.3182688985517663,4.25,-0.0022945839557790668
S044,7240.0,7269.984375,W,-0.11345312499999972,46.198002860906705,-240.1,192.77,432.87,-0.5,0.0,734.375,734.375,14.532609666078466,1.7159775619324267,1.3719564642985416,62.4787976474464,0.800943940680238,68.85491994040804,0.06979166666666667,44,0.11702502499999999,0.004606247037923064,6.016086918426355e-06,32.946,0.014966629547095827,7.91666881420043e-06,63.14666666666667,0.6893152802278185,2.2900000000000063,0.0012215281091384846
S044,7270.0,7299.984375,W,0.08268749999999997,37.44940427828161,-230.47,200.47,430.94,1.165,0.0,734.375,734.375,1.6310913476488678,0.630282364797715,1.3820365250590239,62.71459557447541,0.45106569734694113,65.07687761409578,0.18229166666666666,126,0.11745202499999999,0.0031281757422457926,-4.659471967087666e-06,33.00666666666667,0.029249881291306894,4.375001186795032e-05,65.89399999999999,1.1313461008904397,3.0799999999999983,0.0019902088732120433
S044,7300.0,7329.984375,W,0.06690104166666666,9.888703436592378,-32.32,28.19,60.510000000000005,0.87,85.79215619091296,984.375,949.5361328125,1.3851327246623535,0.2605749518959095,0.8033539718994777,62.74107148769928,0.30725707272915376,63.702433234531945,0.026041666666666668,24,0.11118579999999999,0.001255118544202101,-1.3960902224637122e-06,33.056000000000004,0.015620499351814173,1.1458336441606382e-05,65.85033333333332,0.9566346684544165,2.469999999999999,-0.0016773962883561999
S044,7330.0,7359.984375,W,0.07876041666666579,123.16668250799782,-750.48,747.92,1498.4,0.49,62.82701717828227,890.625,918.1233723958334,6.748991694237659,3.5149877508874607,5.999094893392716,62.764251513310754,1.2448990483312534,75.35250493513803,0.03958333333333333,17,0.11802830833333332,0.00959912501897598,1.2502597358560488e-05,33.06,0.014375905768566477,1.458333728931999e-06,64.91766666666666,0.26346009607191495,1.2800000000000011,-0.00015232643021007947
S044,7360.0,7389.984375,W,0.07460416666666779,131.68739418936417,-673.96,475.77,1149.73,2.9450000000000003,233.86977100490452,890.625,671.630859375,1.6105093089997957,1.1770206472983666,1.0702332949201103,62.34350280041562,0.7965761574203749,73.21885003194191,0.022916666666666665,16,0.12221306666666666,0.0017462074749455049,-2.475521070833624e-06,33.09000000000001,0.012649110640673249,-2.083333898473407e-06,62.69233333333333,0.39456882233085194,1.5700000000000003,-1.4479170594392157e-05
S044,7390.0,7419.984375,W,-0.3012291666666668,50.27492670462898,-440.01,290.16,730.1700000000001,-0.32499999999999996,46.31535694910217,453.125,468.3675130208333,4.702154754109782,1.7323486661297913,1.4955953849740096,62.369229763441005,0.3899940791499286,63.92182725798755,0.153125,91,0.11570132500000001,0.001820361398012769,-1.9734855613838866e-06,33.074,0.014047538337137969,-1.4027781583058076e-05,65.003,0.5658041475045349,2.1000000000000014,0.0009119794140569176
S044,7420.0,7449.984375,W,-3.5022187500000004,83.72893865383689,-495.4,344.34,839.74,-0.515,132.21916955652753,937.5,890.91796875,6.338755131984819,2.4279540641247728,2.124718118559103,62.363940029375314,0.492045742262374,64.56779382943171,0.14895833333333333,77,0.1150288,0.0020023522941780255,-4.058725059332965e-07,33.041333333333334,0.019447936194418956,-1.645833779794212e-05,66.664,0.42025865051576683,1.519999999999996,-9.611113718292564e-05
S044,7450.0,7479.984375,W,3.5446302083333334,64.25453404534257,-429.95,524.55,954.5,0.105,4.360490991086853,937.5,937.255859375,13.659371623896988,2.6534953036304567,2.8399119399004062,62.54463038118154,0.6228647376289489,67.72001181334805,0.075,51,0.11449504999999999,0.0028652781797759187,1.5662230811152004e-06,33.037333333333336,0.021281186266016182,1.4375003899469596e-05,65.31633333333333,0.6523929456666097,2.3599999999999994,0.0007511460370947371
S044,7480.0,7509.984375,W,-0.025999999999999874,60.902364406072124,-553.35,458.6,1011.95,3.065,51.71330295548246,796.875,833.251953125,3.0964023072372053,2.0612738358570626,1.331557655503717,62.7396407765408,0.4158027143778784,65.07687761409578,0.10416666666666667,73,0.11936280833333333,0.003244733415592705,4.154795180879772e-06,33.19466666666666,0.05959492894160991,0.00010298613904788889,68.30066666666667,0.9386619318062394,2.6399999999999864,0.0016675698968017286
S044,7510.0,7539.984375,W,0.012317708333333196,80.93157552315091,-572.14,653.41,1225.55,-2.35,56.93863209728255,796.875,846.8343098958334,8.52559845366034,23.879703943237377,15.124361642865018,64.55280974882952,2.439980231768582,97.71386800244886,0.030208333333333334,9,0.156435325,0.013314597217066248,1.4955839777517294e-05,33.41833333333334,0.11877382801872739,0.0001742708806073356,70.32966666666667,0.5315604909655681,1.7399999999999949,0.00014829865133969488
S044,7540.0,7569.984375,N1,0.054973958333333385,61.24372004539993,-338.91,545.98,884.8900000000001,-2.8049999999999997,147.71178119116485,1203.125,1097.8190104166667,6.242286559671508,20.908673771640537,17.81982439568515,64.55632220394385,2.536404311997392,83.10234653726692,0.042708333333333334,8,0.15737483333333335,0.012429447562363966,-1.3187789601722437e-05,33.51599999999999,0.030615900008546575,-1.3263892486950075e-05,68.566,0.6522453526089687,1.8499999999999943,-0.0011055558554567725
S044,7570.0,7599.984375,N1,-0.16459375000000012,59.50878146194023,-412.66,507.78,920.44,-1.185,112.61291929817538,1078.125,1073.9013671875,0.9541211779549925,0.3032645726781594,0.722588632347079,63.172744189972036,0.39292684860592086,67.06713054842886,0.3385416666666667,177,0.156755375,0.0017031560217358275,2.4010416669492424e-06,33.29633333333334,0.03859907886062629,-6.38541839882218e-05,67.64866666666666,0.6640368129018823,1.6800000000000068,-0.0010860419612744032
S044,7600.0,7629.984375,N2,-0.10061458333333319,126.08481044782498,-603.44,577.29,1180.73,0.76,0.0,1078.125,1078.125,15.433576171370651,9.168611003547648,10.895812619483179,63.29242192934935,4.152252559420922,100.5186549850325,0.07708333333333334,17,0.1458141166666667,0.01797074353089086,-2.6713473392326763e-05,33.208999999999996,0.02270829510700136,-2.9895841443098552e-05,67.29333333333332,0.3747562170561305,1.3999999999999915,0.0006052779419699275
S044,7630.0,7659.984375,N2,0.01301562500000036,108.49599378605994,-484.26,529.49,1013.75,-0.22,158.35999527863945,828.125,900.0895182291666,35.135966911271,9.303992140380595,24.10511051792954,62.49112668874008,2.517795366023701,84.05950273467003,0.06875,22,0.12601295833333334,0.005904861199886967,9.325147277871979e-06,33.18999999999999,0.020816659994662076,3.3333342375580223e-06,70.171,1.0291075421613305,3.030000000000001,0.001789549096557373
S044,7660.0,7689.984375,N2,0.29834374999999924,83.45433329301622,-613.89,604.48,1218.37,2.575,0.0,828.125,828.125,20.58011527538813,6.441280493895734,2.478227894739281,62.72324835313732,0.8811399987085325,74.31016081263719,0.04479166666666667,32,0.14537681666666663,0.001280901284144183,7.759094986733634e-07,33.138333333333335,0.04457827074059881,-6.239585025928986e-05,69.43966666666667,1.3112855863193522,4.599999999999994,-0.0022476742208317646
S044,7690.0,7719.984375,N2,-0.09551041666666667,17.470080940648447,-71.21,68.18,139.39,2.48,43.884023619372094,890.625,866.8619791666666,0.1686213501375855,0.03225804701500421,0.44423266981454157,62.809372914767074,0.1420353960228218,63.733821476512766,0.023958333333333335,13,0.14704211666666664,0.0009907763974390128,6.407584203446256e-07,33.11600000000001,0.012806248474865962,1.3125003560385033e-05,62.86433333333333,1.309304353039769,4.369999999999997,-0.0021410075252299046
S044,7720.0,7749.984375,N2,0.0680260416666667,8.868116239356501,-56.3,24.43,80.72999999999999,1.005,74.09614296051375,875.0,901.9856770833334,0.1203113726498409,0.20142450595005126,0.4566624372523125,62.792195467158,0.23844303488928262,63.733821476512766,0.013541666666666667,12,0.147639925,0.0008512601361364251,4.308920439702824e-08,33.139333333333326,0.015040685563570159,1.569444870183508e-05,62.74066666666667,0.8371974412022264,2.049999999999997,0.0014089587155378456
S044,7750.0,7779.984375,N2,0.01809895833333335,7.829661150381322,-59.35,21.0,80.35,0.6,92.40434506334553,1062.5,997.1028645833334,0.22706421937906074,0.15644432360711874,0.4586362635272337,62.82646966834127,0.19716916508567767,63.733821476512766,0.05416666666666667,30,0.14794949166666663,0.0008432131303910618,-6.782271805086782e-08,33.145666666666656,0.011742609969203354,4.4097234184353795e-06,63.605999999999995,0.13278052065972168,0.3999999999999986,5.104168051261012e-05
S044,7780.0,7809.984375,N2,-0.07659375000000002,4.3778714459724535,-10.17,11.47,21.64,-0.025,184.96633340747462,531.25,606.2337239583334,0.09090593428863095,0.07198059875565237,0.45500567571246353,62.794556538005146,0.15111539280121805,63.733821476512766,0.013541666666666667,13,0.14800286666666665,0.000888936686284365,2.204622993875602e-07,33.151999999999994,0.008717797887080374,1.944444971908884e-06,63.568333333333335,0.4210786413750067,1.1599999999999966,-0.0006030209969132475
S044,7810.0,7839.984375,N2,0.057781250000000006,4.142708689430354,-13.18,14.26,27.439999999999998,0.3,129.86561341847525,796.875,715.6901041666666,0.06441510347391793,0.05581428468591173,0.4530842893589325,62.792227001112146,0.14712208354914852,63.733821476512766,0.007291666666666667,7,0.148088275,0.0007982016658558188,4.586915306780424e-08,33.15366666666666,0.011100550536896726,-7.812502119276068e-06,63.470666666666666,0.45523571427948795,1.3699999999999974,-0.0005101390272729567
S044,7840.0,7869.984375,N2,-0.025416666666666667,4.456374733333013,-11.02,11.27,22.29,0.25,141.02816186971612,1109.375,981.5673828125,0.07880950133074055,0.06441510347391796,0.45734267938700945,62.79124228908233,0.14963887783134266,63.733821476512766,0.010416666666666666,10,0.148088275,0.0008640157981049913,-8.256447552204771e-08,33.14766666666666,0.01054619467970215,-2.8819452262215472e-06,62.382,0.26485719422612114,0.7999999999999972,-2.4027784295731952e-05
S044,7870.0,7899.984375,N2,-0.019416666666666683,10.407353593800341,-69.4,78.08,147.48000000000002,-0.060000000000000005,179.92864745738981,640.625,710.4329427083334,0.14707433282187615,0.11557806855349137,0.5168976298284044,62.72604989928504,0.19620745586419136,64.45153217728807,0.028125,23,0.14799219166666663,0.0008740048655073728,-2.2793517467859627e-07,33.14166666666666,0.012405196043950401,5.902779379002314e-07,62.727,0.22815418763050005,0.6499999999999986,-0.0003171181415793565
S044,7900.0,7929.984375,N2,0.020182291666666654,6.312335197361835,-16.41,22.99,39.4,-0.07500000000000001,0.0,640.625,640.625,0.1067949667847486,0.28129629248652865,0.5228129047119374,62.70486326826941,0.2797275596668311,65.28399497579785,0.01875,17,0.14802421666666665,0.0009176995984828375,6.9366338261268126e-09,33.123333333333335,0.014907119849998597,-1.7361115820615064e-05,62.55433333333333,0.2432787610038233,0.8699999999999974,-0.0003316320344053907
S044,7930.0,7959.984375,N2,0.04207812500000001,7.297463193933433,-49.86,54.86,104.72,0.245,111.81191781043299,640.625,550.830078125,0.13188915142607024,0.11987768650679834,0.4999902342796308,62.744527332682175,0.1918066690690562,63.733821476512766,0.03229166666666667,25,0.14817367499999998,0.0007607763267708874,7.255666030725406e-08,33.10200000000001,0.014236104336040847,-9.305558079849663e-06,61.323,0.19093017921044667,0.6999999999999957,8.496530082609087e-05
S044,7960.0,7989.984375,N2,0.02902604166666691,62.23165982456321,-631.63,484.42,1116.05,0.255,0.0,406.25,406.25,35.52843013522078,14.53766644478137,6.502295267826585,62.58362491644801,1.6321307088223862,81.93289937503738,0.019791666666666666,7,0.14777869999999999,0.0013730556652954793,-7.455822335021275e-07,33.10266666666667,0.03140417523550244,2.1944450397255596e-05,61.89433333333333,0.5631914022386668,2.25,0.0007823266011085624
S044,7990.0,8019.984375,N2,-0.030578125000000077,21.016635053896906,-65.65,70.17,135.82,-1.69,0.0,406.25,406.25,0.23239907830544904,0.2582808246366733,0.3487079325484613,61.975878968234746,0.26380443776264934,63.166446789415026,0.1875,147,0.15005240833333333,0.0011250876669237362,1.1977804898493124e-06,33.17166666666666,0.014395215254460898,-6.006946073933706e-06,65.10933333333334,0.4358511468634913,1.5799999999999983,0.0003841667708785726
S044,8020.0,8049.984375,N2,0.242203125,14.575598818830402,-40.16,47.64,87.8,-0.08,249.19187214157256,406.25,572.3470052083334,0.3295340117962872,0.24944382578492938,0.24016912082368586,61.99139347393268,0.29659483034580986,63.166446789415026,0.17708333333333334,136,0.15249627500000001,0.0009759493067649499,9.353641860254354e-07,33.172999999999995,0.017916472867170283,1.9062505171036836e-05,63.147000000000006,0.9230281685842527,3.5800000000000054,-0.001598854600383734
S044,8050.0,8079.984375,N2,-0.061984374999999904,10.947932670608298,-48.79,36.5,85.28999999999999,0.26,0.0,843.75,843.75,0.40686251900980014,0.24944382578492938,0.16532992583014122,62.04291553251754,0.3469614170075283,63.166446789415026,0.19479166666666667,143,0.154150675,0.0009281112914812509,6.935971933586103e-07,33.21066666666666,0.01459071241882528,-6.458335085269143e-06,60.64866666666667,0.5560139886329803,1.5799999999999983,0.000607708498184814
S044,8080.0,8109.984375,N2,-0.021843750000000148,11.606911762526927,-34.84,46.42,81.26,-0.315,0.0,843.75,843.75,0.4577600581454582,0.43803414813294583,0.5381254436054437,62.074120806061316,0.418809210146366,63.166446789415026,0.26458333333333334,189,0.15574125,0.001000265158595463,6.015808923559299e-07,33.21399999999999,0.01280624847486441,-3.2638897742744134e-06,61.712333333333326,0.39139650256769326,1.0900000000000034,0.0006671182365229592
S044,8110.0,8139.984375,N2,-0.14876562499999996,8.149853231504746,-23.67,26.91,50.58,-0.52,0.0,843.75,843.75,0.4710349402438799,0.3376735664810024,0.1356408400888169,62.11251404797851,0.4122785947286529,63.166446789415026,0.3020833333333333,195,0.15715034999999997,0.0009497750931141573,6.599598144422262e-07,33.22233333333333,0.01666999966673257,1.7187504662408427e-05,61.12433333333333,0.7410338873642838,1.8200000000000003,-0.0012162156076973758
S044,8140.0,8169.984375,N2,-0.13366145833333343,6.898800618885832,-26.22,16.5,42.72,-0.015,0.0,843.75,843.75,0.48465605645194976,0.3754496725224597,0.08507936450096985,62.128585765484715,0.4174295718746068,63.166446789415026,0.32395833333333335,200,0.15849540000000004,0.0011183813929067326,5.276342577132881e-07,33.248000000000005,0.010770329614270692,-2.291667288321563e-06,62.15599999999999,0.8574675892805902,2.779999999999994,0.001523958746733601
S044,8170.0,8199.984375,N2,0.11049999999999999,4.474517718425082,-17.45,15.14,32.59,0.49,0.0,843.75,843.75,0.4948070173057371,0.33306629928922893,0.08507936450096987,62.184693015091035,0.41757787962552884,63.166446789415026,0.38229166666666664,220,0.15968032500000004,0.001103146463247286,4.784291662405483e-07,33.25066666666667,0.015040685563573035,8.819446836873524e-06,63.59666666666667,0.045190952880219945,0.14000000000000057,5.722223774474801e-05
S044,8200.0,8229.984375,N2,0.029713541666666666,3.307755245130997,-8.88,11.04,19.92,0.265,56.94365662389041,843.75,822.1761067708334,0.49418383718061387,0.36010794822525094,0.07198059875565235,62.170915524207814,0.4197871069322936,63.166446789415026,0.3625,217,0.16082255000000004,0.0010174344684056968,6.060288102291641e-07,33.28333333333334,0.018135294011647218,2.611111819420409e-05,62.993,0.6245699854032908,1.730000000000004,-0.001000659993668618
S044,8230.0,8259.984375,N2,-0.04069270833333331,2.9175407718782322,-7.95,8.57,16.52,-0.06,0.0,671.875,671.875,0.49495720914932523,0.3388075878684275,0.03225804701500421,62.18056586802868,0.4185032836343088,62.68173577685928,0.38125,221,0.16211422499999997,0.0008234985879617536,4.65085412620826e-07,33.321999999999996,0.01194431524477825,4.37500118679354e-06,61.749,0.05028916384272018,0.14999999999999858,-6.149307223661879e-05
S044,8260.0,8289.984375,N2,-0.007760416666666677,3.586973231491024,-11.77,11.79,23.56,-0.05,0.0,671.875,671.875,0.5073665242510148,0.46231227421396554,0.7236330204350053,62.19123872115748,0.4828660904788958,64.45153217728807,0.39375,217,0.16330982499999996,0.0010843929612345368,5.518198111490392e-07,33.33166666666666,0.01067187372905477,8.368057825538061e-06,61.54533333333334,0.08616779496359916,0.29999999999999716,-9.20833583125434e-05
S044,8290.0,8319.984375,N2,0.022078124999999987,3.937892586796456,-12.83,10.94,23.77,0.13,0.0,671.875,671.875,0.4965855638479859,0.36210317120569685,0.07198059875565235,62.184264549363675,0.41901764650608797,63.166446789415026,0.3770833333333333,212,0.164121125,0.0009999803044935468,3.92250757446496e-07,33.344666666666676,0.013097921802924122,2.3611117516041336e-06,61.211333333333336,0.09642728982099556,0.38000000000000256,-0.00013923614888133458
S044,8320.0,8349.984375,N2,-0.006838541666666657,3.155037911647213,-9.36,11.19,20.549999999999997,-0.175,0.0,671.875,671.875,0.4919093680637611,0.34546761536197407,0.07198059875565235,62.16548067345486,0.4093848698250323,63.166446789415026,0.35104166666666664,210,0.16515660000000004,0.001042439849583662,7.739377099440429e-07,33.37766666666666,0.014067298564006287,2.673611836374329e-06,61.058,0.14561135486859098,0.4200000000000017,-0.00020104172120272452
S044,8350.0,8379.984375,N2,-0.03618749999999999,2.9688078847426986,-10.77,9.29,20.06,0.28,13.798244110296924,671.875,667.3828125,0.49352469367184537,0.3487079325484613,0.05581428468591172,62.17073529079427,0.4179394716781432,63.166446789415026,0.36770833333333336,220,0.16601060000000004,0.000983954770301971,3.1858211767093124e-07,33.37733333333333,0.013888444437333367,9.236113616568647e-06,61.056333333333335,0.04847565253701028,0.1600000000000037,3.281250890096328e-05
S044,8380.0,8409.984375,N2,0.027442708333333354,3.032454841627379,-7.99,8.8,16.79,0.23,60.50704630495314,484.375,518.8720703125,0.4969426928032603,0.34977516339865466,0.06441510347391793,62.190777601432025,0.4169508314972118,63.166446789415026,0.3802083333333333,207,0.16681122500000004,0.0008666495972277407,4.1949425442010063e-07,33.40399999999999,0.0156204993518129,1.145833644160574e-05,61.24366666666667,0.1613378098552502,0.4799999999999969,0.0002596181259814794
S044,8410.0,8439.984375,N2,0.0027760416666666493,3.5650029294998715,-16.64,17.37,34.010000000000005,0.185,0.0,484.375,484.375,0.49874408239318707,0.3903123748998999,0.10642856726723118,62.1938274146957,0.42783156075346584,63.166446789415026,0.3875,208,0.167900075,0.0010216259439613919,6.296583739307684e-07,33.448,0.019561867668162296,2.7152785143442784e-05,61.98133333333333,0.21168740055930385,0.6599999999999966,0.0003687501000298651
S044,8440.0,8469.984375,N3,-0.02902083333333334,3.440154411442308,-9.69,11.12,20.81,-0.125,0.0,484.375,484.375,0.5001291065953759,0.5409761223294015,0.12074350109035084,62.235486796241325,0.44066226848892953,64.53681120105021,0.4114583333333333,218,0.16901027499999996,0.0009398244779611715,8.665100006808766e-07,33.48733333333334,0.017688665548562577,2.5416673561381124e-05,62.062333333333335,0.04814445854809091,0.15000000000000568,-2.82986187876045e-05
S044,8470.0,8499.984375,N3,0.005156249999999981,3.7648733899365863,-8.31,15.54,23.85,-0.27,0.0,484.375,484.375,0.4944999139843763,0.43480194844894615,0.032258047015004204,62.25198250245386,0.4306578466057486,63.166446789415026,0.0010416666666666667,1,0.17026992500000002,0.0009378824389948808,3.833549217000081e-07,33.534,0.019765289440497068,2.8402785482524222e-05,61.832,0.1756018223140067,0.4799999999999969,-0.0002661806277616721
S044,8500.0,8529.984375,N3,-0.0031666666666666583,3.647634603601201,-8.98,10.53,19.509999999999998,-0.385,0.0,484.375,484.375,0.49352469367184537,0.43886196735293537,0.04559597630883185,62.25487610941797,0.4235078917221869,63.166446789415026,0.428125,234,0.17105987500000003,0.00091922845874951,4.2616613122996077e-07,33.589333333333336,0.020319667538837852,2.7569451923137943e-05,61.93766666666666,0.02603629944690415,0.10999999999999943,-1.0937502966986899e-05
S044,8530.0,8559.984375,N2,-0.006395833333333323,3.6262694227882886,-18.44,15.28,33.72,-0.03,0.0,484.375,484.375,0.4976986970603355,0.43361244016274364,0.09636964965693295,62.236100038328544,0.43197455846428445,63.166446789415026,0.41875,228,0.17177510000000004,0.0009118224827234764,5.837892208629632e-07,33.626666666666665,0.016397831834997937,1.7986115990156343e-05,62.022,0.13658696863171113,0.39000000000000057,0.0001613194882051563
S044,8560.0,8589.984375,N2,0.00700520833333332,4.084784755647826,-8.66,15.65,24.310000000000002,-0.755,225.48561305714355,484.375,685.2620442708334,0.49434299833212964,0.45825756949558394,0.0,62.23536310666265,0.4296265609255847,62.68173577685928,0.40625,213,0.17296000833333333,0.0010388301392739317,6.452022149528598e-07,33.655999999999985,0.013564659966249514,1.3888892656491161e-05,61.955999999999996,0.047791212581393676,0.14000000000000057,-3.250000881619301e-05
S044,8590.0,8619.984375,N3,0.00852083333333331,3.7797532987704336,-9.96,14.91,24.87,-0.25,85.19408059399207,1062.5,987.841796875,0.49495720914932523,0.4530842893589325,0.04559597630883184,62.2371815375167,0.43409975757119384,63.166446789415026,0.41458333333333336,233,0.173867275,0.0009744156450791439,4.897082491613104e-07,33.69899999999999,0.024406283343980973,3.6423620991651425e-05,61.80033333333333,0.07507699751292383,0.28999999999999915,-0.00012711809003854434
S044,8620.0,8649.984375,N2,-0.0010104166666666692,3.211702887471301,-7.98,12.59,20.57,-0.28500000000000003,0.0,1062.5,1062.5,0.5020617215265691,0.5002332355317423,0.21648379702647488,62.24579563195432,0.4431058695640522,64.45153217728807,0.003125,3,0.174849025,0.0008746443702299835,5.140602522949918e-07,33.726000000000006,0.011999999999999034,8.333335593894494e-06,61.70133333333334,0.08484233743964265,0.22999999999999687,2.6805562827029223e-05
S044,8650.0,8679.984375,N2,0.01544791666666665,4.322237316988814,-8.88,17.04,25.92,-0.41000000000000003,0.0,1062.5,1062.5,0.49817265908908415,0.45734267938700945,0.0,62.21040594717218,0.4327434436744247,62.68173577685928,0.3854166666666667,218,0.17567068333333333,0.0009821959579036285,5.94997991264648e-07,33.75266666666667,0.013399834161496614,1.0972225198630512e-05,61.50533333333333,0.10048991104694141,0.28000000000000114,-0.000112916697297281
S044,8680.0,8709.984375,N3,-0.025765625000000014,4.076171883804504,-9.0,12.44,21.439999999999998,-0.22,0.0,1062.5,1062.5,0.4988876515698588,0.43999289766995103,0.045595976308831845,62.216707906628926,0.44253880569940135,63.166446789415026,0.41458333333333336,223,0.17656718333333332,0.0008750020188865555,2.1486550967488756e-07,33.781333333333336,0.01606929439092476,1.7569449210460995e-05,61.63933333333333,0.1415140354248377,0.4200000000000017,0.00018055560453439804
S044,8710.0,8739.984375,N3,0.010270833333333338,3.7343609908500595,-8.4,11.76,20.16,-0.36,47.22235865043431,1062.5,1024.6175130208333,0.49994682877004254,0.4330127018922193,0.045595976308831845,62.20056310573218,0.4346350919576017,62.68173577685928,0.39166666666666666,218,0.17715430000000001,0.0009148169816963312,4.470157462607773e-07,33.82333333333333,0.01349897115421071,1.423611497290379e-05,62.16333333333333,0.13332499973956624,0.36999999999999744,0.0002315278405837223
S044,8740.0,8769.984375,N2,0.0017760416666666797,3.4988569296880376,-9.19,10.22,19.41,-0.33,44.5911740452567,1015.625,983.203125,0.49932137105998403,0.4353917456983104,0.0,62.21294371603838,0.43618709866132854,62.68173577685928,0.40520833333333334,216,0.17824315000000002,0.0009303799909176838,3.1135425112691053e-07,33.845000000000006,0.014317821063274994,9.13194692164478e-06,62.309,0.0840773453434389,0.22999999999999687,-0.00010170141647716185
S044,8770.0,8799.984375,N2,0.021005208333333334,3.047792606265427,-12.16,9.9,22.060000000000002,-0.13,0.0,1015.625,1015.625,0.5116852856954383,0.48160160316039924,0.3445760277339225,62.220632658026965,0.4473961349110907,63.66317616958802,0.4083333333333333,236,0.1790331,0.0010554762858539298,5.787853132555658e-07,33.88666666666666,0.011642832797715717,9.375002543132653e-06,62.300000000000004,0.07420691791650387,0.259999999999998,7.354168661612617e-05
S044,8800.0,8829.984375,N3,-0.017255208333333338,3.3791368963147046,-11.99,12.69,24.68,-0.055,0.0,1015.625,1015.625,0.49964831381682845,0.4305801964275128,0.04559597630883184,62.21121491504646,0.4307808343373657,62.68173577685928,0.396875,200,0.180196675,0.000994495283736935,5.345841293902278e-07,33.90466666666666,0.010241527663823361,1.2500003390841063e-05,62.55166666666667,0.10810745682987018,0.29999999999999716,0.00014871531811938964
S044,8830.0,8859.984375,N2,0.017020833333333353,3.4264969629442215,-9.88,12.76,22.64,-0.135,0.0,1015.625,1015.625,0.49914858064063,0.40980681212479725,0.03225804701500421,62.23067947176822,0.42918428292522687,62.68173577685928,0.4239583333333333,232,0.1809546,0.0009605127484838534,4.058725059332984e-07,33.91266666666666,0.012364824660661133,1.1666669831453155e-05,62.492333333333335,0.056254382545322675,0.17999999999999972,4.177084466439924e-05
S044,8860.0,8889.984375,N2,-0.015500000000000005,3.135001870679931,-13.19,9.47,22.66,0.005,0.0,1015.625,1015.625,0.49705731281434956,0.40980681212479725,0.045595976308831845,62.25108004229382,0.4280676363132582,62.80923498976882,0.44479166666666664,225,0.18126417499999997,0.0007577746329714422,-2.418555343575144e-08,33.931333333333335,0.011469767022725293,2.2222228250390908e-06,62.809666666666665,0.1410551507586858,0.4200000000000017,0.00015003476292175695
S044,8890.0,8919.984375,N2,-0.013817708333333336,3.430264029272346,-10.15,9.12,19.27,-0.18,0.0,1015.625,1015.625,0.49914858064063,0.40385377708260806,0.045595976308831845,62.234221209511496,0.4265193769594233,63.166446789415026,0.425,230,0.18181927499999997,0.0009542637996775347,7.441922591667393e-07,33.91799999999999,0.013266499161422673,-1.3888892656445038e-07,62.95033333333333,0.1357321709184011,0.3999999999999986,0.00013565975902228526
S044,8920.0,8949.984375,N2,0.012510416666666654,4.185388503708446,-24.63,27.15,51.78,0.05,0.0,1015.625,1015.625,0.4979896651510171,0.39279397828250884,0.07198059875565235,62.25346351701707,0.4245450138177404,63.166446789415026,0.44583333333333336,225,0.18276935,0.0008429871158564671,6.399441840126389e-07,33.934666666666665,0.0152169496140196,1.4097226046341068e-05,62.82066666666666,0.11442416217254475,0.45000000000000284,0.00013881948210163857
S044,8950.0,8979.984375,N2,-0.003369791666666668,3.2726991518094244,-8.65,9.64,18.29,-0.08,0.0,1015.625,1015.625,0.4993746088859545,0.38522517765587433,0.03225804701500421,62.239039572807506,0.4292373715859904,63.166446789415026,0.440625,227,0.18347389999999997,0.0007885061128488506,4.392318899826104e-08,33.952,0.014922019523732656,1.2430558927561082e-05,63.43733333333334,0.11644550466014379,0.35999999999999943,-0.00011263891944415219
S044,8980.0,9009.984375,N3,-0.024901041666666665,3.144716864341513,-9.76,8.61,18.369999999999997,-0.125,0.0,1015.625,1015.625,0.4988876515698588,0.39523529384405937,0.04559597630883185,62.24169786016743,0.42353372588318144,62.68173577685928,0.43333333333333335,233,0.18396495,0.0009085673048817043,5.315261858523742e-07,33.98000000000001,0.010000000000001563,6.0416683055750284e-06,63.22566666666667,0.1518701931109447,0.490000000000002,-0.0002200347819104768
S044,9010.0,9039.984375,N3,0.02883333333333333,3.4594232258507422,-20.58,18.1,38.68,0.095,0.0,1015.625,1015.625,0.4975973086716026,0.39114409953011214,0.05589199343873463,62.25551174637159,0.42353535553365307,63.166446789415026,0.446875,222,0.18443464999999998,0.0010057187119170076,4.264441260970409e-07,33.986000000000004,0.012806248474866626,3.888889943817965e-06,62.790666666666674,0.1429669736532024,0.4099999999999966,0.0001492361515940082
S044,9040.0,9069.984375,N3,0.011421875,3.1569883969834533,-7.67,8.43,16.1,-0.11499999999999999,266.2304728097565,390.625,541.9921875,0.49264997011626366,0.4030913530316532,0.0,62.278334464527234,0.42167087221865107,62.68173577685928,0.0,0,0.18511785000000003,0.000890323159027102,3.430456659737584e-07,33.987,0.010049875621121697,2.7430562996578626e-06,62.626333333333335,0.18919977683801717,0.6000000000000014,-0.00027586813038957535
S044,9070.0,9099.984375,N2,-0.03911979166666666,4.427287109767857,-21.04,22.46,43.5,-0.04,0.0,390.625,390.625,0.48946807153843597,0.4030913530316532,0.07210109366946757,62.29315447184951,0.41756949077641586,63.166446789415026,0.0020833333333333333,2,0.185726325,0.0010393196665968514,6.246544663233653e-07,34.001666666666665,0.016141733350404548,7.256946413017134e-06,61.982,0.17350120076433753,0.47000000000000597,-0.00027104174019144586
S044,9100.0,9129.984375,N2,0.050401041666666674,3.833844281472873,-12.11,15.36,27.47,-0.11,107.64504910687822,640.625,579.1666666666666,0.3992166265707825,0.4540507784103007,0.045595976308831845,62.41967357793801,0.36936940452452155,63.166446789415026,0.0020833333333333333,1,0.1864202,0.0008740472012425779,-9.17383061356055e-08,34.02066666666666,0.01965253729731089,2.1527783617562297e-05,62.13766666666666,0.2149214326730171,0.6199999999999974,-0.00027927090909041626
S044,9130.0,9159.984375,N2,-0.039312499999999986,3.8744743253991354,-10.8,13.8,24.6,-0.22,0.0,640.625,640.625,0.3283415290855274,0.4732137007708274,0.0,62.46193493960945,0.32180522058351724,62.68173577685928,0.0,0,0.186153325,0.0007607763267708751,2.0293625296664534e-08,34.042,0.015790292376434974,1.6180559944812303e-05,61.796,0.13011789525913287,0.39000000000000057,-0.0001729861580366099
S044,9160.0,9189.984375,N2,-0.006890625000000006,3.5272653135543655,-9.25,13.34,22.59,-0.14,82.04658808944882,953.125,929.8502604166666,0.3659661276637801,0.6293382423338731,0.24329328651627213,62.46370680481233,0.3636030836496706,64.68384651518491,0.0020833333333333333,2,0.18676180000000003,0.00094423980534607,6.505079889615809e-07,34.072,0.014000000000001544,1.1458336441607097e-05,61.504999999999995,0.24149189082313546,0.6699999999999946,0.00028635424434522526
S044,9190.0,9219.984375,N2,0.009614583333333338,3.4976981950925943,-9.57,9.68,19.25,0.08499999999999999,155.17009631066966,953.125,885.9375,0.302757867592056,0.45734267938700945,0.032258047015004204,62.49267300061497,0.3030889388839474,62.68173577685928,0.0,0,0.18789335,0.0009352664740596672,8.284247038912506e-07,34.112,0.015790292376436203,1.1180558588476792e-05,61.648999999999994,0.1489373470064958,0.5,-2.8437507714167097e-05
S044,9220.0,9249.984375,N3,-0.10692187499999992,22.770954391736925,-165.27,125.02,290.29,-0.375,61.43229681976887,406.25,442.3583984375,0.9777200084536245,1.2713182135091121,0.8688174434252571,62.414106811411344,0.6333608242818202,68.64400920692205,0.025,11,0.18822427499999997,0.0014061451025320958,-9.699240912337485e-07,34.151666666666664,0.03697596817153318,4.49652899753925e-05,61.553999999999995,0.28130173598231945,1.2000000000000028,0.00028652785550343325
S044,9250.0,9279.984375,N2,0.011963541666666652,7.181781649070152,-23.49,23.0,46.489999999999995,0.20500000000000002,254.30776244291093,875.0,680.6477864583334,0.0,0.24816820222829156,0.5040418233859392,62.336900746786554,0.2838960231273058,63.15853069855251,0.46875,90,0.188010775,0.0009986118737402463,7.603159614572395e-07,34.101,0.04422292015082926,-7.649307630562958e-05,63.849333333333334,0.719837636013998,2.6199999999999974,0.0011601392035967874
S044,9280.0,9309.984375,N2,0.09292708333333337,6.32354973285178,-18.69,18.73,37.42,0.425,59.363054445812466,1046.875,1037.9150390625,0.06441510347391795,0.10152910775842669,0.18085445345175585,62.60596029729279,0.11173743239041026,63.15853069855251,0.004166666666666667,3,0.190081725,0.0011252381745101819,8.331506166315721e-07,33.964,0.037202150475477466,-6.305557266047594e-05,64.90333333333334,0.6355907138682536,2.210000000000001,-0.0010781947369234864
S044,9310.0,9339.984375,N2,0.031901041666666644,5.478296484822989,-23.51,33.1,56.61,1.005,126.12308546994385,1031.25,964.0869140625,0.17950549357115014,0.09090593428863097,0.10699797992641417,62.59913593500933,0.15563372671118533,63.15853069855251,0.007291666666666667,5,0.19185377500000003,0.0008976526189874373,6.41890148082182e-07,33.85466666666666,0.029970355723984373,-4.8055568591462094e-05,62.26366666666666,0.7520836980608526,2.3500000000000014,-0.0012496183945362386
S044,9340.0,9369.984375,N2,-0.016677083333333325,5.267762175082017,-13.99,24.56,38.55,0.46499999999999997,38.82067531498805,984.375,992.0654296875,0.3858612300930075,0.38044513173897876,0.4555026222634606,62.5576931899552,0.3332632864542122,67.83067152844649,0.030208333333333334,24,0.1941702416666667,0.0011286848984240637,1.289880775249765e-06,33.78733333333333,0.017688665548561508,-2.319445073634117e-05,61.18899999999999,0.4301654720376028,1.1200000000000045,0.0007365626998054202
S044,9370.0,9399.984375,N2,0.031526041666666664,5.349187449427576,-12.14,10.43,22.57,0.61,50.056038685996924,984.375,986.7431640625,0.39999999999999997,0.0,0.20219874281810518,62.496052058170896,0.3239374565023297,63.15853069855251,0.034375,29,0.19579283333333333,0.0009734285741074653,6.838543521740343e-07,33.745,0.01727232854404352,-2.3159728504703204e-05,61.34466666666667,0.15215635233389216,0.5,6.729168492070437e-05
S044,9400.0,9429.984375,N3,-0.06383333333333334,4.969949875389981,-11.38,9.88,21.26,0.425,48.71002903410393,1000.0,1001.4078776041666,0.4691479792015403,0.0,0.2732186624299299,62.41969648488633,0.39028716095040145,63.15853069855251,0.058333333333333334,54,0.1975538583333333,0.0011744011118852145,1.247507065838508e-06,33.705666666666666,0.022462314118441747,-3.065973053920614e-05,60.61233333333333,0.3486037228079407,0.980000000000004,-0.000600798774088209
S044,9430.0,9459.984375,N2,0.010723958333333342,5.296195976324359,-12.09,9.06,21.15,0.85,43.48732948173544,1015.625,1001.7252604166666,0.49670681989535387,0.03225804701500421,0.3234941073651883,62.35118198245426,0.42683571102313816,63.15853069855251,0.07708333333333334,71,0.19893041666666664,0.0010664635451132682,7.737918765711489e-07,33.66599999999999,0.012806248474866848,-1.4513892826035602e-05,60.50066666666667,0.07004443034404814,0.28000000000000114,-2.875000779893964e-05
S044,9460.0,9489.984375,N3,0.0230677083333333,4.942496355545672,-10.85,7.89,18.74,0.985,48.992680614949336,984.375,996.5169270833334,0.4999826385874701,0.0,0.36890886408434265,62.33451700479319,0.4374049753726608,63.15853069855251,0.090625,79,0.20056358333333335,0.0009157207414866689,6.646915865591349e-07,33.64999999999999,0.00894427190999738,-4.722223503206391e-06,60.30166666666666,0.0804604802924319,0.28000000000000114,-6.00694607393367e-06
S044,9490.0,9519.984375,N3,-0.05898437500000001,5.420434634303403,-11.84,10.51,22.35,0.64,65.72896603706319,984.375,971.1100260416666,0.46876273130858953,0.0,0.4683748498798798,62.28622845989474,0.4179743713818686,63.15853069855251,0.08645833333333333,79,0.20207942500000003,0.0008592546155680481,6.107547229694844e-07,33.63366666666666,0.012242911781470245,-1.2326392232634896e-05,60.379999999999995,0.08053984521134105,0.3200000000000003,0.00012916670170537897
S044,9520.0,9549.984375,N2,-0.007833333333333336,5.150791463589735,-12.56,9.01,21.57,0.84,71.03427732936228,1015.625,998.33984375,0.34393934179348157,0.5541735196944686,0.7859545848043639,62.28896222107669,0.5141518141050324,69.29646455628166,0.06770833333333333,62,0.20342447499999997,0.0009398244779611693,9.187730356914621e-07,33.620000000000005,0.013416407864999248,-9.652780396263033e-06,60.662333333333336,0.055418608988517346,0.1599999999999966,-1.1458336441607188e-06
S044,9550.0,9579.984375,N2,0.03118229166666667,5.010529070960113,-10.27,9.68,19.95,0.705,64.83168687666597,968.75,984.0006510416666,0.18998355191963326,0.0,0.4353917456983104,62.29328349456549,0.28313388887180774,63.15853069855251,0.0375,34,0.20530327499999992,0.0008745034015800083,5.846232054641962e-07,33.60200000000001,0.013266499161420532,-1.1666669831451847e-05,60.30233333333334,0.15396283822908588,0.6600000000000037,-0.0002448958997655983
S044,9580.0,9609.984375,N2,0.03274479166666665,5.181641161096425,-12.03,12.15,24.18,0.8300000000000001,50.016779203456736,953.125,981.2662760416666,0.20912350152216008,0.07216126567549165,0.41195118162431177,62.32345237754244,0.27346616646316013,63.52952069707436,0.04479166666666667,41,0.206242675,0.0008671753971227533,6.213185279184396e-07,33.59600000000001,0.01280624847486474,3.819445480535691e-06,60.464333333333336,0.35763746385908074,0.9299999999999997,0.0006162848894001972
S044,9610.0,9639.984375,N2,-0.006958333333333333,5.097136493734879,-12.0,13.28,25.28,0.68,43.723306384062674,1000.0,1009.0250651041666,0.13188915142607024,0.0,0.36890886408434265,62.32771268665285,0.22588252858547092,63.15853069855251,0.017708333333333333,16,0.20723545000000002,0.0009085673048817054,7.266785825408507e-07,33.58466666666668,0.011469767022724248,-7.361113107941298e-06,60.64266666666667,0.08578785202786879,0.29999999999999716,-7.291668644658901e-06
S044,9640.0,9669.984375,N2,-0.024624999999999994,5.099370106628367,-11.85,9.6,21.45,0.44,79.29626322626689,1000.0,993.0582682291666,0.10152910775842672,0.0,0.25654623798103576,62.37162661722788,0.15473564912660998,63.15853069855251,0.010416666666666666,10,0.20834565000000002,0.000751507869220279,2.891146617607056e-07,33.562000000000005,0.013266499161422817,-3.888889943818138e-06,60.009,0.28553283523966205,0.9200000000000017,-0.0004951043009723036
S044,9670.0,9699.984375,N2,0.03211979166666665,5.109266299682042,-10.74,10.11,20.85,0.765,46.627354071275846,1000.0,1015.7389322916666,0.0,0.0,0.19982631347136334,62.37945755835725,0.10774070001403309,62.40192304729078,0.0,0,0.209509225,0.0009177396277675934,3.694551783461318e-07,33.55100000000001,0.014685593847940845,-1.1701392063095343e-05,60.34299999999999,0.24425601323201887,0.9299999999999997,0.00011010419653434127
S044,9700.0,9729.984375,N2,0.022833333333333313,5.286758497389703,-13.64,16.1,29.740000000000002,0.7,56.65549364454204,968.75,973.6490885416666,0.1909378125565727,0.6106654783012454,0.44448296274060567,62.3956254606869,0.3468405536848373,68.82586723027906,0.00625,5,0.21051267499999995,0.0009713076852238861,5.429239754025517e-07,33.54533333333333,0.0123107902084119,2.083333898473159e-07,61.260999999999996,0.3218213790288019,1.0499999999999972,0.0005660070979836953
S044,9730.0,9759.984375,N3,0.012598958333333321,5.146691207060343,-11.11,11.96,23.07,0.89,51.31822709650168,984.375,977.8401692708334,0.0,0.0,0.11110243021644486,62.39518340061072,0.05990328999636708,62.40192304729078,0.0,0,0.21200717499999996,0.0011693389347725478,1.3146377264099723e-06,33.54333333333333,0.014907119849997963,7.777779887636225e-06,61.34633333333333,0.15166813186105438,0.5,0.00010086808291777402
S044,9760.0,9789.984375,N3,0.005901041666666647,5.201054322262354,-12.85,11.23,24.08,1.25,61.57724547073304,984.375,988.0533854166666,0.0,0.0,0.10642856726723121,62.39574503783406,0.05738327520367015,62.40192304729078,0.0,0,0.21349100000000001,0.0008486457152428244,7.111108699845048e-07,33.556666666666665,0.011925695879999683,-2.361111751604428e-06,61.231333333333325,0.235891688893206,0.6000000000000014,-0.00038208343698009997
S044,9790.0,9819.984375,N3,-0.019276041666666684,4.864287615585075,-10.73,9.17,19.9,1.1549999999999998,44.4586148454214,1031.25,1008.6588541666666,0.0,0.0,0.08507936450096985,62.39799158672742,0.04587238852002942,62.40192304729078,0.0,0,0.2147293,0.0008895548662111885,3.853008857695558e-07,33.580000000000005,0.014375905768566968,9.37500254313295e-06,60.89066666666666,0.1187134739146692,0.36999999999999744,-0.0002078472786044047
S044,9820.0,9849.984375,N3,-0.016307291666666685,4.765565544366709,-11.35,8.46,19.810000000000002,0.705,61.28476736939388,984.375,979.8502604166666,0.0,0.0,0.07198059875565237,62.39911486117409,0.03880990427456699,62.40192304729078,0.0,0,0.215743425,0.0008044588208075068,4.5730155634265466e-07,33.59666666666668,0.01299572579307749,1.1527780904887646e-05,60.53933333333334,0.0674750982873594,0.269999999999996,-0.00010548613972605686
S044,9850.0,9879.984375,N3,-0.0029010416666666594,4.899018159560877,-12.69,10.77,23.46,0.88,85.05380010887008,1000.0,991.6422526041666,0.0,0.0,0.032258047015004204,62.40136141006744,0.017392627157585088,62.40192304729078,0.0,0,0.21675754999999997,0.0008933897231891599,5.937970360777564e-07,33.60466666666668,0.01359738536957982,1.4444448362750243e-05,60.164333333333346,0.09182168710180658,0.269999999999996,-0.00014190976071770732
S044,9880.0,9909.984375,N3,-0.05657291666666666,4.793697253609837,-12.5,9.24,21.740000000000002,0.82,49.86821928276158,1000.0,1006.4453125,0.11636400473179934,0.13686723088047364,0.2115147707936467,62.39764712354328,0.14537346996784006,65.05382386916237,0.003125,3,0.21769694166666664,0.0009901560928782282,8.728845683823096e-07,33.61600000000001,0.012806248474866257,4.236112260230052e-06,59.98433333333333,0.06322886120189837,0.25,-9.579863709815415e-05
S044,9910.0,9939.984375,N2,-0.006546875000000011,5.108255359270038,-11.73,10.79,22.52,0.695,56.54589159198436,1015.625,1008.0159505208334,0.0,0.0,0.045595976308831845,62.4007997728441,0.02458406162830411,62.40192304729078,0.0,0,0.2187110583333333,0.0009852151312939427,6.652165432987517e-07,33.632,0.00945163125250444,8.958335763436195e-06,60.00333333333334,0.13344994900294657,0.38000000000000256,6.604168458161964e-05
S044,9940.0,9969.984375,N2,0.003494791666666656,4.8522456382944865,-11.93,10.1,22.03,0.825,69.69372723881342,968.75,971.7610677083334,0.0,0.0,0.06451609403000842,62.40081151051124,0.03496898122416683,62.95236294214857,0.0010416666666666667,1,0.219351575,0.0007395086506424365,1.2759964398861806e-07,33.63966666666666,0.013780017739061711,3.715278785611083e-06,59.64933333333333,0.0698060806011121,0.25,-2.2777783956647123e-05
S044,9970.0,9999.984375,N2,0.05042708333333335,4.68774398530535,-12.44,9.77,22.21,0.89,99.32317536694943,984.375,939.2008463541666,0.0,0.0,0.0,62.40192304729078,0.0,62.40192304729078,0.0,0,0.21975718333333336,0.0009469566074477178,1.4422746967975984e-07,33.645666666666656,0.009893881386435252,2.3958339832444187e-06,59.571999999999996,0.18312837027615297,0.46999999999999886,-0.00027979174256503387
S044,10000.0,10029.984375,N2,0.020828124999999968,5.246286552930462,-19.62,11.93,31.55,0.535,85.18978434642496,1031.25,1007.9996744791666,0.0,0.03225804701500421,0.07216126567549165,62.40100820459932,0.04092736894755254,62.95236294214857,0.0020833333333333333,1,0.22072821666666667,0.0010052991278166384,4.457718223122355e-07,33.649333333333324,0.0085374989832421,-1.527778192213832e-06,59.85233333333333,0.176156811455653,0.509999999999998,0.000303298693386149
S044,10030.0,10059.984375,N2,0.008015624999999974,5.590578595369701,-14.97,15.08,30.05,0.8,71.13744443303891,890.625,935.0992838541666,0.0,0.0,0.05589199343873465,62.401373147734574,0.030347056801823195,62.95236294214857,0.0010416666666666667,1,0.22178465,0.0008794094197243993,3.438295203530611e-07,33.651999999999994,0.007483314773546395,1.6666671187787259e-06,60.66466666666667,0.30701501953849575,1.1500000000000057,0.0005229168085169316
S044,10060.0,10089.984375,N2,-0.0849791666666667,6.717411199914193,-35.02,16.07,51.09,1.02,61.88930119290187,906.25,945.7356770833334,0.11636400473179934,0.17962332791304014,0.16134404557239374,62.39959424057656,0.09136161522978466,62.95236294214857,0.004166666666666667,2,0.22254245000000003,0.0009884641862505726,8.95067083080266e-07,33.658333333333324,0.0085958646388185,7.048613023170262e-06,61.91133333333333,0.4447076442887948,1.7000000000000028,0.000665347402709256
S044,10090.0,10119.984375,N2,0.16157812500000007,6.8526730915099705,-26.91,18.53,45.44,1.6749999999999998,42.97976497148027,984.375,1004.2724609375,0.0,0.0,0.0789470638395684,62.40422828451982,0.04330758443127633,62.95236294214857,0.005208333333333333,4,0.224132975,0.0009127593189746163,4.901049506578116e-07,33.65599999999999,0.012806248474864924,-1.3888892656474618e-07,62.98233333333333,0.15649671633047735,0.6199999999999974,-0.00023385423010368516
S044,10120.0,10149.984375,N2,-0.0728177083333333,8.345374793616905,-28.61,27.77,56.379999999999995,0.56,108.83955910728551,843.75,892.08984375,0.0,0.0,0.07198059875565238,62.40478992174316,0.039620993210861974,62.95236294214857,0.005208333333333333,5,0.22457065,0.0008590556603038032,5.559897341552056e-09,33.664666666666655,0.0105619863451709,-2.2916672883214638e-06,63.97599999999999,0.8030757540024899,2.4000000000000057,0.0008643752344767899
S044,10150.0,10179.984375,N2,-0.01999479166666669,6.967648160275426,-15.28,21.67,36.95,0.97,86.8198447016783,1015.625,1022.0458984375,0.0,0.0,0.032258047015004204,62.40249642218126,0.017756116007256524,62.95236294214857,0.0010416666666666667,1,0.22466672499999998,0.0007631691813582384,3.8085296789631465e-08,33.66399999999999,0.01356465996625112,-4.861112429764869e-07,64.154,0.16525939206794493,0.5399999999999991,-4.0347233167110164e-05
S044,10180.0,10209.984375,N2,-0.033734375000000004,6.4814392098920965,-13.06,18.23,31.29,1.0150000000000001,34.928093417494495,1046.875,1039.5345052083333,0.0,0.0,0.05581428468591172,62.40364317196221,0.030722408994075925,62.95236294214857,0.003125,3,0.224688075,0.0008671753971227526,5.028927145433808e-07,33.681333333333335,0.01647894279241237,4.930556893055484e-06,62.75600000000001,0.6814963927515202,2.4299999999999997,-0.0010742364025163858
S044,10210.0,10239.984375,N2,0.03340625000000001,7.054428216373099,-16.46,17.15,33.61,0.965,68.79736636536944,1015.625,1003.8167317708334,0.0,0.0,0.032258047015004204,62.40249642218126,0.017756116007256528,62.95236294214857,0.0010416666666666667,1,0.22528587499999997,0.000958077533070787,3.766830448901508e-07,33.69133333333333,0.01564892612574142,1.5694448701836878e-05,61.07599999999999,0.3103610800342077,1.0100000000000051,0.0002732639630164829
S044,10240.0,10269.984375,N2,0.04368750000000001,6.449205946459125,-16.65,17.81,34.459999999999994,0.945,61.666291983213625,953.125,979.2805989583334,0.18246717741372923,0.40667045549806047,0.9372476512225689,62.39407050059081,0.2918470500758359,66.37770710110436,0.0020833333333333333,2,0.22634269999999995,0.0008202402148151456,-1.0675002895779887e-07,33.69533333333333,0.020612833111653732,-1.125000305175867e-05,61.13333333333333,0.42708573170058256,1.3599999999999994,0.00036944454466269247
S044,10270.0,10299.984375,N2,-0.05128645833333332,6.6578585506483705,-13.46,14.54,28.0,0.995,69.63687070642372,1015.625,1013.5579427083334,0.0,0.0,0.04559597630883185,62.40306979707173,0.025097844405371633,62.95236294214857,0.0020833333333333333,2,0.22742087499999997,0.0010831311829021379,3.522194965873177e-07,33.693333333333335,0.017950549357115663,8.888891300155523e-06,61.88733333333334,0.2815899303755172,0.9799999999999969,-0.00041611122398850373
S044,10300.0,10329.984375,N1,-0.00044270833333334887,6.573645255064043,-13.46,13.54,27.0,1.225,78.56202660182532,984.375,968.1884765625,0.0,0.0,0.07880950133074056,62.40536329663363,0.043379893626287594,62.95236294214857,0.00625,6,0.22802934999999996,0.0009055521395811445,4.164363108822413e-07,33.71033333333333,0.022133433734712032,2.4618062233631948e-05,60.93366666666666,0.40210681278596744,1.0399999999999991,-0.0006213543352198182
S044,10330.0,10359.984375,N2,0.014843750000000037,6.371600284380626,-16.83,15.49,32.32,1.0,53.81696681674061,1000.0,993.4651692708334,0.32112912501135044,0.9666256950728137,0.9337773311484203,62.43045537562755,0.6540832707772062,77.25930364687478,0.007291666666666667,4,0.228765925,0.0008185017528234144,-2.0849615030818885e-08,33.733333333333334,0.013743685418726077,-3.472223164117649e-07,60.56433333333333,0.11394979401278296,0.3200000000000003,0.0001585764319054994
S044,10360.0,10389.984375,N2,-0.09579166666666666,6.982285763088658,-21.6,19.35,40.95,1.08,51.61982923140737,1000.0,997.4365234375,0.0,0.0,0.04559597630883185,62.40306979707173,0.025097844405371633,62.95236294214857,0.0020833333333333333,2,0.22943845000000002,0.001123870164876711,8.779077902310651e-07,33.73800000000001,0.011075498483892497,0.0,60.628333333333345,0.38152399079947197,1.0300000000000011,-0.0005794793238604936
S044,10390.0,10419.984375,N2,0.096203125,6.441208172319608,-17.31,13.31,30.619999999999997,1.24,70.90538511630947,1000.0,1021.5657552083334,0.0,0.0,0.04559597630883185,62.40306979707173,0.02509784440537163,62.95236294214857,0.0020833333333333333,2,0.22995085000000007,0.0008748291133129974,5.35974103725616e-07,33.75,0.01154700538379432,1.3888892656494319e-06,59.89933333333333,0.18676069060580086,0.5500000000000043,-0.00019756949803860128
S044,10420.0,10449.984375,N2,-0.09738020833333332,6.700426950111086,-21.65,16.65,38.3,0.825,68.69569425383898,1015.625,1000.9765625,0.25405564515147727,0.8124439083202399,0.7171441904739629,62.43220541939067,0.46316102780083285,73.68853370776216,0.011458333333333333,8,0.23110375,0.0009864993854534346,2.2017193472546105e-07,33.758,0.011075498483892497,-1.250000339084489e-06,59.96433333333333,0.43633842624987984,1.2399999999999949,0.0005702432102439257
S044,10450.0,10479.984375,N2,0.03452604166666668,6.272573757732693,-15.49,14.41,29.9,1.5550000000000002,62.4391254030618,1000.0,1003.1656901041666,0.0,0.0,0.03225804701500421,62.40249642218126,0.017756116007256524,62.95236294214857,0.0010416666666666667,1,0.23204314999999995,0.0010672864786457313,5.065066478153898e-07,33.757333333333335,0.015902480589170265,1.854167169641903e-05,59.932,0.10071080709966893,0.4299999999999997,-6.88889075762004e-05
S044,10480.0,10509.984375,N2,0.08115625000000003,6.369999420833511,-16.42,14.85,31.270000000000003,0.625,33.26147201206643,1031.25,1038.3951822916667,0.0,0.0,0.08507936450096985,62.40593667152412,0.046831076450481304,62.95236294214857,0.007291666666666667,6,0.23260892499999994,0.0009281112914812565,5.962989898814555e-07,33.77733333333333,0.014126413400277295,1.201389214786423e-05,59.80633333333333,0.35295404170451894,0.9099999999999966,-0.0005512848717678138
S044,10510.0,10539.984375,N2,-0.014729166666666666,6.00432374848736,-13.11,13.14,26.25,1.21,48.32364651194,1015.625,1004.9723307291666,0.0,0.0,0.08507936450096985,62.40593667152412,0.046831076450481304,62.95236294214857,0.007291666666666667,7,0.233911275,0.0010099588107319016,6.357742610064709e-07,33.788000000000004,0.011944315244778647,-9.02778022672057e-07,59.82366666666667,0.2237332240762543,0.7600000000000051,9.20486360809019e-05
S044,10540.0,10569.984375,N2,-0.007963541666666633,6.3174820990318175,-17.91,18.76,36.67,0.86,75.83052179343629,1031.25,1028.7272135416667,0.06441510347391795,0.0,0.2068462551362458,62.42346144224539,0.12077486701749646,62.95236294214857,0.04375,30,0.23532037500000003,0.0011740073612950578,1.1333850730753698e-06,33.79533333333334,0.014544949486181163,-1.6666671187791947e-06,59.712333333333326,0.1402303660251786,0.44999999999999574,0.00021531255840726926
S044,10570.0,10599.984375,N2,-0.023432291666666678,5.214107430068024,-11.58,11.8,23.380000000000003,1.11,62.870504189466786,1015.625,1015.0390625,0.0,0.0,0.19741988090108853,62.424284668019375,0.10866777848603239,62.95236294214857,0.040625,39,0.23649462500000004,0.0009217044994872283,1.2648766452030718e-07,33.774,0.011999999999999034,-5.555557062596518e-06,59.361666666666665,0.3055277765150364,1.019999999999996,-0.0003494098170057009
S044,10600.0,10629.984375,N2,0.02557812500000001,4.914264417991583,-14.2,13.15,27.35,0.59,119.17926071547912,1015.625,1018.9046223958334,0.14789832632777,0.5198156724583565,1.2216893862996525,62.4477757028147,0.5227106633808454,73.33484846919642,0.003125,2,0.23751942499999998,0.0011052105430075325,7.564240333181532e-07,33.76866666666667,0.01783878421367978,-1.3055559097103847e-05,59.32033333333333,0.2999942592043322,1.1000000000000014,-0.00029836813649309214
S044,10630.0,10659.984375,N2,-0.028510416666666663,5.254533416676958,-13.61,14.16,27.77,0.62,130.09735438784267,1203.125,1120.6787109375,0.0,0.0,0.2914805954090255,62.453526787433695,0.1604425482900296,62.95236294214857,0.09375,81,0.23866164999999995,0.0007928298855996817,2.474154316990654e-07,33.754,0.01583245611605303,1.916667186596216e-05,58.86033333333333,0.22861150938266928,0.6999999999999957,0.0003817014924320459
S044,10660.0,10689.984375,N2,0.023083333333333345,4.701004111859744,-11.74,10.14,21.880000000000003,0.68,59.33898313015424,937.5,951.6194661458334,0.045595976308831845,0.0,0.33422894006204784,62.47088634115256,0.18770921873520577,62.95236294214857,0.128125,108,0.23893919999999993,0.0007566459277627839,1.601250434366985e-07,33.75933333333333,0.01913693345921099,-1.8888894012830596e-05,59.757,0.32600766862146124,1.4100000000000037,0.00038940982785639976
S044,10690.0,10719.984375,N2,-0.03053124999999999,5.3304052895729015,-11.44,11.84,23.28,0.925,66.2726440757932,984.375,986.5559895833334,0.04559597630883185,0.0,0.3121091305537215,62.46056559312398,0.1757008453506751,62.95236294214857,0.109375,97,0.23952632499999996,0.0010260779791882314,-2.9189461043148777e-08,33.74733333333334,0.01436043948569355,6.388890621987066e-06,60.92400000000001,0.23506878425969924,0.6700000000000017,-0.00031000008409290414
S044,10720.0,10749.984375,N2,0.060348958333333334,5.770209560129634,-11.67,12.23,23.9,1.21,54.23788560555036,1000.0,984.2366536458334,0.0,0.0,0.34327460814517324,62.477035157943256,0.18895203921477774,62.95236294214857,0.13645833333333332,109,0.23946227499999992,0.0008640157981049913,3.27199958550337e-07,33.75933333333334,0.016918103387266525,1.2361114464278141e-05,60.324333333333335,0.15235229641269724,0.45000000000000284,9.128474698479442e-05
S044,10750.0,10779.984375,N2,0.0008697916666666823,5.333740217915797,-12.6,12.53,25.13,0.865,65.57434740997778,1046.875,1007.3811848958334,0.03225804701500421,0.0,0.32714138285304106,62.46822700064315,0.18197636143146842,62.95236294214857,0.121875,95,0.23971847499999996,0.0009398244779611807,1.8097465846751867e-07,33.779333333333334,0.011234866364233528,6.250001695420939e-06,60.26166666666666,0.15605732564954788,0.45000000000000284,0.00021239589094940582
S044,10780.0,10809.984375,N2,-0.011557291666666662,6.213292322198647,-15.36,18.21,33.57,0.745,48.707744810205355,1015.625,1026.0660807291667,0.25202091169296953,0.4873352641890613,0.3897782489228116,62.47694279440272,0.2444259907019631,65.22269543648132,0.13541666666666666,109,0.24022019166666667,0.0009344841116522842,-2.5017584911454285e-08,33.79333333333334,0.01273664878302879,-3.4027787008397757e-06,60.36333333333333,0.052936020082947795,0.14999999999999858,7.263890859345409e-05
S044,10810.0,10839.984375,N2,-0.04203125,5.933759140771565,-14.12,20.7,34.82,0.885,47.99681884326093,1015.625,1010.7747395833334,0.045595976308831845,0.0,0.35501736068661327,62.481780464071626,0.19902271116049552,62.95236294214857,0.14791666666666667,127,0.24042302499999998,0.0008560657827381053,1.9543039155555386e-07,33.80133333333334,0.015216949614017877,-2.4305562148858887e-06,61.04466666666667,0.3670307283533027,1.1000000000000014,0.0006572224005052091
S044,10840.0,10869.984375,N2,0.042437499999999975,6.176557714813898,-13.73,12.53,26.259999999999998,1.315,45.929160510871434,1015.625,1000.8219401041666,0.045595976308831845,0.0,0.3487079325484613,62.47834021472876,0.1955863303167419,62.95236294214857,0.14166666666666666,114,0.24075394166666667,0.0009621273503356469,-3.1246991983233615e-07,33.822333333333326,0.011455226851625143,8.298613362253345e-06,60.98033333333333,0.2851956443488499,0.8000000000000043,-0.0004312848392157226
S044,10870.0,10899.984375,N2,-0.06361979166666666,7.423646746154589,-16.87,14.91,31.78,0.67,106.40506275054274,921.875,940.91796875,0.09636964965693294,0.0,0.4155075021885886,62.51703753945713,0.23982762582359593,62.95236294214857,0.21979166666666666,154,0.24016681666666664,0.0010326734477666328,-4.0779872173359475e-07,33.807,0.015307950004273737,-1.1215280820117745e-05,61.147,0.5286217929673341,1.7299999999999969,0.0008330905037680384
S044,10900.0,10929.984375,N2,0.055953125000000034,7.973035803562284,-47.8,30.7,78.5,0.72,70.29386626689289,906.25,899.9755859375,0.139283726964862,0.0,0.4763094159495717,62.57862754286402,0.2846047285286087,62.95236294214857,0.34270833333333334,188,0.2416506416666667,0.0011294834940201181,1.1169597213974969e-06,33.81466666666667,0.011175369742825627,-3.263889774275597e-06,65.00433333333334,1.2312911470845922,4.109999999999999,0.0022039242089638166
S044,10930.0,10959.984375,N2,0.02409375000000002,6.051955263552786,-14.35,16.54,30.89,0.91,75.29079259841126,906.25,929.0201822916666,0.16532992583014122,0.0,0.4915254034352875,62.605691295826965,0.29460545075712063,62.95236294214857,0.39479166666666665,237,0.2428996166666667,0.0009651392834139982,2.9330823928717243e-07,33.82066666666666,0.012364824660659654,2.500000678168484e-06,67.56933333333333,0.40800272330245624,1.25,0.0007011807457630028
S044,10960.0,10989.984375,N2,-0.07579687500000001,6.354487349043738,-19.31,14.87,34.18,1.01,58.54403046420799,1000.0,958.5774739583334,0.162326296048696,0.0,0.47563918981607145,62.57200752125118,0.2960147977488502,62.95236294214857,0.3416666666666667,216,0.24257937500000004,0.000776785063177069,-1.198157877104457e-07,33.82299999999999,0.010049875621119291,-5.798612684084738e-06,65.83233333333334,0.8814294576929502,2.700000000000003,-0.0015052434638789776
S044,10990.0,11019.984375,N2,0.10386458333333334,8.780688538538934,-20.35,41.83,62.18,-0.10500000000000001,59.411108180524934,875.0,886.962890625,0.24016912082368583,0.0,0.4992083576774332,62.615761001450295,0.3320003151457619,62.95236294214857,0.44583333333333336,223,0.24271813333333336,0.0009919421768541865,-1.3674309264949302e-07,33.816,0.013564659966250038,5.833334915725912e-06,65.77799999999999,0.2953122641092528,1.0,0.00038513899336452484
S044,11020.0,11049.984375,N2,-0.012328125000000023,12.409105882318192,-27.04,43.37,70.41,-0.045,98.05925923456024,875.0,808.0647786458334,0.2732186624299299,0.0,0.4994745502914926,62.60391498802863,0.33515395221172123,62.95236294214857,0.4322916666666667,237,0.24269678333333336,0.0010049529606183348,-1.8288546627752347e-07,33.824999999999996,0.010246950765958602,3.020834152785775e-06,67.791,1.142364069229536,3.259999999999991,0.0020244797158419335
S044,11050.0,11079.984375,N2,-0.3577968749999999,15.09328014418415,-63.6,64.41,128.01,-0.98,108.842401918259,671.875,769.4986979166666,0.439992897669951,0.0,0.4480753110527292,62.60372661997791,0.41266001874060354,62.95236294214857,0.0,0,0.24324120000000002,0.0011785637912306614,8.548101277154151e-07,33.827,0.012423096769056329,1.0243058334163709e-05,68.369,0.5139802201122794,1.5,-0.00043809039661740193
S044,11080.0,11109.984375,W,0.15839583333333312,25.603172639293795,-91.05,266.8,357.85,-1.42,0.0,671.875,671.875,0.4944999139843763,0.0,0.37727176461405115,62.540637761636326,0.4328722303260011,62.95236294214857,0.0,0,0.24425526666666666,0.0008588920744514646,3.507900257134369e-07,33.83033333333333,0.010482790129011717,-3.7152787856112557e-06,70.81766666666665,0.9722677386170734,3.210000000000008,0.0015485073645039517
S044,11110.0,11139.984375,W,0.2214479166666667,13.155343463913715,-30.56,40.02,70.58,-1.19,95.2686424312101,828.125,799.7395833333334,0.48517966317185585,0.0,0.4030913530316532,62.55770690762874,0.42814303593381914,62.95236294214857,0.0,0,0.2441805333333333,0.0008913571948937602,-9.091148299464955e-08,33.828999999999986,0.005385164807133916,9.375002543136997e-07,72.57733333333334,0.26506519114277505,0.7800000000000011,0.00028534729962763193
S044,11140.0,11169.984375,W,0.028786458333333383,13.060863734687176,-33.54,65.36,98.9,-1.07,44.25014760554924,859.375,840.1123046875,0.49670681989535387,0.03225804701500421,0.36199078218773595,62.45450499630624,0.4049349738220464,63.150613615387776,0.36041666666666666,183,0.24395643333333333,0.0009621046091194417,-9.565106761367726e-08,33.83833333333333,0.013924399049469975,9.965280481033033e-06,70.91799999999999,0.8594315951061304,2.719999999999999,-0.0014119448274589933
S044,11170.0,11199.984375,W,-0.13469270833333344,13.456795538149928,-64.28,39.61,103.89,-2.775,54.73330017964686,890.625,870.4671223958334,0.28558389261690204,0.0,0.06441510347391795,62.27356682029052,0.21592933754199184,62.95236294214857,0.08958333333333333,79,0.24537573333333332,0.000960979593377971,5.482466764992069e-07,33.84933333333334,0.014817407180592915,-5.972223842290386e-06,70.46333333333334,0.34690376507357545,1.25,-5.944446056978592e-05
S044,11200.0,11229.984375,W,-0.31494791666666655,14.047822603276305,-41.07,59.33,100.4,-1.87,2.5599347225118585,875.0,875.4313151041666,0.21794494717703367,0.0,0.09119195261766372,62.24886581183287,0.16942591426223755,62.95236294214857,0.05625,47,0.24749957499999997,0.0013554624835734148,1.6112172339456524e-06,33.86100000000001,0.01699999999999783,1.0729169577139011e-05,68.32966666666668,1.1694057845285741,3.049999999999997,-0.002052188056691639
S044,11230.0,11259.984375,N1,0.37296354166666684,21.472717224876412,-64.92,83.81,148.73000000000002,-1.58,0.0,875.0,875.0,0.07198059875565237,0.0,0.0,62.2131940541611,0.05348438363699668,62.95236294214857,0.005208333333333333,5,0.25038180000000004,0.0009633559103467374,1.0775081047927733e-06,33.86833333333333,0.014624940645652382,7.465279802863513e-06,66.07066666666667,0.6559010765521137,1.8200000000000074,-0.0011406253094144168
S044,11260.0,11289.984375,N1,0.20984375000000027,142.33796169122658,-690.18,603.31,1293.4899999999998,-1.505,0.0,875.0,875.0,4.312373060732403,7.577196392131495,15.017942068884638,62.31776294016622,2.6828089383909632,107.46627377926528,0.029166666666666667,14,0.2355656166666667,0.013175210633473338,-1.9533527000197202e-05,33.879666666666665,0.019576062480034254,3.5763898590469543e-06,64.619,0.45581684918396836,1.4099999999999966,-6.295140596555071e-05
S044,11290.0,11319.984375,N1,-0.2519010416666666,22.565096410639534,-77.58,86.63,164.20999999999998,0.325,7.614052499618903,890.625,884.5621744791666,0.20064998546390841,0.47857640274452407,0.24206145913796356,62.11582049060277,0.23463399699177692,63.474404290233394,0.09791666666666667,66,0.22238237500000005,0.0012184185587781429,-1.3244163748959392e-06,33.882666666666665,0.016519348924484728,-1.1458336441606284e-05,64.117,0.43438961006604887,1.3199999999999932,0.0002822570210115652
S044,11320.0,11349.984375,N1,0.3236249999999997,178.189820463334,-1150.0,718.38,1868.38,-2.63,0.0,890.625,890.625,0.9039836364285339,0.6807233884605569,1.5001027163905218,62.23151631273163,0.41437996036202424,66.09841147864296,0.17395833333333333,84,0.21808113333333334,0.0020201496393969275,-2.9320051356350627e-06,33.88733333333332,0.011234866364235468,5.000001356337486e-06,64.09366666666666,0.515645119136106,1.8000000000000043,-0.00015274309698977358
S044,11350.0,11379.984375,N1,0.6811406250000002,46.97987044004653,-88.86,182.2,271.06,-8.4,0.0,890.625,890.625,0.16827350421923892,0.0,0.4995212551783959,61.99908602403213,0.2618024407784361,62.57795138864806,0.029166666666666667,20,0.215892875,0.0008734603078417491,-1.1091995196396324e-07,33.892666666666656,0.013399834161493858,1.3888892656462207e-07,62.846,0.3354658452560158,1.009999999999998,-0.0005540279280674714
S044,11380.0,11409.984375,N1,-0.8793281249999997,89.29063587647737,-660.09,515.14,1175.23,-4.545,0.0,890.625,890.625,0.49132999596051086,0.0,0.03225804701500421,62.068228257526364,0.422836814394414,62.57795138864806,0.40729166666666666,221,0.2159249,0.0009017690058989616,-3.6139332720088606e-08,33.89199999999999,0.014922019523732401,9.027780226713408e-07,62.78066666666667,0.6875072524869982,1.9799999999999969,0.0009184030269105414
S044,11410.0,11439.984375,N2,-0.29516145833333357,22.285055027486422,-51.03,74.18,125.21000000000001,-3.545,23.623920375638114,937.5,918.7255859375,0.49738792532980625,0.0,0.0,62.191463411179136,0.4281788286474754,62.57795138864806,0.0,0,0.215786125,0.0007738454686660665,-1.5984704856962093e-07,33.893333333333324,0.010434983894998001,5.208334746184507e-06,62.397333333333336,0.6612106741089069,1.9699999999999989,-0.0009389585880421508
S044,11440.0,11469.984375,N2,0.5122916666666666,34.59408113750478,-191.86,206.23,398.09000000000003,-4.2,0.0,937.5,937.5,0.4591611841777956,0.0,0.0,62.31790147341375,0.39527115152880593,62.57795138864806,0.0,0,0.21593557499999996,0.000837766491556569,2.0154627863126094e-07,33.89133333333333,0.011469767022722982,2.500000678167744e-06,60.35566666666667,1.160837867902126,3.3599999999999994,-0.0017232296341226215
S044,11470.0,11499.984375,N2,0.08504687499999998,18.922687865085905,-38.94,70.38,109.32,-3.5199999999999996,0.0,937.5,937.5,0.42425895361467886,0.0,0.0,62.37529179953443,0.36522539561346046,62.57795138864806,0.0,0,0.21599962499999997,0.0008112297666968361,1.3371553106432574e-07,33.898666666666664,0.013349989596332821,-2.2916672883215137e-06,58.923333333333325,1.6143158165475415,4.550000000000004,0.0024772923386752227
S044,11500.0,11529.984375,N2,-0.31718229166666684,52.148766404674134,-234.31,377.18,611.49,-4.225,0.0,937.5,937.5,0.457089932723553,0.44367541431083257,0.07210109366946756,62.41445565260208,0.3726266085102828,66.4304147209695,0.0020833333333333333,2,0.21618110000000001,0.0009316040145898915,1.5734509476592299e-07,33.898666666666664,0.016069294390924683,4.791667966489623e-06,63.45366666666667,1.9740997667009872,6.030000000000008,0.003137049462090241
S044,11530.0,11559.984375,N2,-0.20016666666666633,19.86449821271747,-43.94,86.94,130.88,-3.2350000000000003,96.91983077792935,937.5,903.80859375,0.3834918150654877,0.0,0.0,62.423714887198756,0.33013080496828634,62.57795138864806,0.0,0,0.21661876666666663,0.0010031246410868186,1.8051220174483935e-08,33.90399999999999,0.01280624847486474,2.708334068016244e-06,67.824,0.9341969813695608,2.530000000000001,-0.0014789587345265664
S044,11560.0,11589.984375,N2,0.38063541666666667,27.878550237525726,-53.37,125.87,179.24,-6.27,0.0,625.0,625.0,0.39442595198239966,0.06441510347391792,0.0,62.41276052651753,0.33916337200468877,62.74551776820397,0.0,0,0.216277175,0.0008750244821575025,1.2871162345692954e-07,33.905333333333324,0.014313940369055471,-2.9861119211461797e-06,67.90766666666667,0.6489102831328502,2.0700000000000074,0.00013184031354174992
S044,11590.0,11619.984375,N2,-0.7284427083333335,30.85207569532817,-55.42,104.93,160.35000000000002,-8.844999999999999,0.0,625.0,625.0,0.38349181506548774,0.032258047015004204,0.0,62.42389186354274,0.32979732471780676,62.57795138864806,0.0,0,0.21640527499999998,0.0008797003179350364,-1.5762308963300012e-07,33.901333333333326,0.01431394036905502,6.04166830557303e-06,66.55933333333333,0.9891677759050229,3.069999999999993,-0.0015092365205177192
S044,11620.0,11649.984375,N2,1.0950052083333333,29.17666878796263,-56.5,94.5,151.0,-6.12,0.0,625.0,625.0,0.3736070773739289,0.032258047015004204,0.0,62.43375339781278,0.32174523218814804,62.74551776820397,0.0,0,0.216277175,0.0008268130347152279,1.9181645828354708e-08,33.90799999999999,0.015790292376436022,-1.1319447515041437e-05,59.60366666666667,3.0983785903095975,9.050000000000004,-0.00555698067409415
S044,11650.0,11679.984375,N1,-0.9198541666666669,20.77028538761322,-45.83,105.61,151.44,-4.52,93.99604687539865,625.0,658.5530598958334,0.31340840191176894,0.0,0.03225804701500421,62.48240574312763,0.2700571874742263,62.57795138864806,0.0,0,0.216319875,0.0008991747101509263,-9.479624967346193e-08,33.90666666666665,0.009067647005822434,2.0138894351908376e-06,57.528,1.6848509330699453,5.990000000000002,0.0029092369002921277
S044,11680.0,11709.984375,N1,-0.3553489583333337,35.42401541773219,-71.18,140.72,211.9,-8.09,0.0,921.875,921.875,0.39676288880205957,0.47006643849271174,0.08533405557962583,62.46898573701959,0.2918835179399495,62.74551776820397,0.0,0,0.21654404999999996,0.0008569305966646337,3.524974914543988e-07,33.91199999999999,0.013012814197295856,4.930556893055187e-06,66.05033333333333,2.8636578977865974,7.950000000000003,0.004742883231033861
S044,11710.0,11739.984375,N1,0.425098958333333,25.811874421204685,-48.78,98.57,147.35,-5.57,0.0,921.875,921.875,0.28408104465197176,0.0,0.0,62.50172986176905,0.24455255695919328,62.57795138864806,0.0,0,0.21684294166666665,0.0010612530588556897,-6.558270008211253e-08,33.919333333333334,0.011234866364236283,3.3333342375579693e-06,63.025,2.4885574804157784,8.730000000000004,-0.004422883144228281
S044,11740.0,11769.984375,N1,1.0108437500000005,28.94091344368302,-52.1,112.49,164.59,-4.735,20.766582045017866,984.375,977.3193359375,0.26836818808308854,0.032258047015004204,0.03225804701500421,62.51037873065437,0.23150079227103,62.74551776820397,0.0010416666666666667,1,0.216490675,0.0009132585720238293,-2.3101373454148696e-07,33.92466666666666,0.014544949486182096,1.527778192213733e-06,57.293,1.0704551991248088,3.299999999999997,1.7708338137025694e-06
S044,11770.0,11799.984375,N2,-0.8307708333333333,21.703760753937306,-58.69,99.37,158.06,-3.79,20.483901197416387,984.375,976.7252604166666,0.24944382578492943,0.03225804701500421,0.05581428468591172,62.519259285222155,0.2153719894299294,62.57795138864806,0.0,0,0.21677889999999997,0.0009605127484838527,3.246980047466389e-07,33.93066666666667,0.0131487219488794,2.430556214886506e-06,60.25433333333333,1.1581355226781056,3.3999999999999986,0.001980729703973986
S044,11800.0,11829.984375,N2,1.5903854166666667,63.834221242389155,-111.14,242.8,353.94,-13.16,0.0,921.875,921.875,0.3234941073651883,0.0,0.0,62.475724870245614,0.2784814847970869,62.57795138864806,0.0,0,0.21676822499999998,0.0008010518861940244,-4.167143057493248e-07,33.928666666666665,0.01543444920372212,8.611113447026551e-06,57.63166666666666,3.753363010539866,10.970000000000006,-0.006687744869722457
S044,11830.0,11859.984375,N2,-2.2536510416666666,46.989566754816025,-95.84,142.16,238.0,-13.325,351.097487361045,921.875,1060.0911458333333,0.27638539919628335,0.045595976308831845,0.032258047015004204,62.50606965973823,0.23849673363314033,62.74551776820397,0.0020833333333333333,2,0.21666146666666666,0.0010366451332168719,-1.3703389133948811e-07,33.93066666666667,0.014126413400279609,-4.236112260230693e-06,47.539333333333346,2.128172820885455,7.059999999999995,-0.0038318065949996187
S044,11860.0,11889.984375,N2,0.6296354166666662,43.13646020518774,-80.1,141.72,221.82,-11.0,0.0,1656.25,1656.25,0.27550261833299033,0.24366763209453074,0.1671574804305475,62.515778908862835,0.2567665960520232,63.72597586541927,0.0020833333333333333,2,0.21690699166666666,0.0008802385897758396,4.115951637356732e-08,33.92666666666666,0.01468181036369853,-3.4027787008405905e-06,44.22366666666667,1.7690665774796472,6.07,0.0025090631806269467
S044,11890.0,11919.984375,N2,-0.10692187500000033,43.57900529204282,-69.31,145.91,215.22,-11.809999999999999,0.0,1656.25,1656.25,0.24016912082368588,0.0,0.09090593428863097,62.52109440977483,0.21223918274165732,62.57795138864806,0.0,0,0.21719522499999996,0.0008067221171971183,2.0210226836541564e-07,33.913999999999994,0.01665332799572968,-1.2916670170537176e-05,51.504999999999995,0.8177234658897022,3.5,0.0013180211908694636
S044,11920.0,11949.984375,W,0.13163020833333292,45.10885511851124,-70.39,321.52,391.90999999999997,-9.33,0.0,1656.25,1656.25,0.2343726851737539,0.0,0.07198059875565235,62.525263334960954,0.20612268301940953,62.57795138864806,0.0,0,0.21704577499999994,0.0008399400421309853,-2.974545077730248e-08,33.91866666666666,0.016878651868230583,9.097224690002592e-06,56.26833333333333,1.8516912689634721,5.270000000000003,0.0028036465938711458
S044,11950.0,11979.984375,N1,-0.09716145833333308,32.94592415697676,-59.28,124.89,184.17000000000002,-7.9350000000000005,0.0,1656.25,1656.25,0.21358993356949718,0.05581428468591172,0.07880950133074055,62.534263728502296,0.18881631494634682,62.74551776820397,0.0020833333333333333,2,0.21733399166666664,0.0009403207652696074,2.946617552793384e-07,33.92333333333333,0.014907119849999867,-9.027780226721505e-06,59.63566666666667,2.4817570164882965,6.850000000000001,0.004392119246994154
S044,11980.0,12009.984375,N1,-0.24771354166666684,43.863530892122576,-61.97,157.3,219.27,-12.49,0.0,1656.25,1656.25,0.25124473114984036,0.032258047015004204,0.08507936450096985,62.516388461812284,0.21920011812481668,62.74551776820397,0.0010416666666666667,1,0.21782504166666664,0.0010697965335819133,1.8345382580670097e-07,33.931333333333335,0.013597385369582883,-2.2222228250390925e-06,64.261,0.6874559379819666,2.29999999999999,0.0005542709836889592
S044,12010.0,12039.984375,N1,0.5393437500000002,37.73207982752876,-133.19,231.26,364.45,-6.32,0.0,1656.25,1656.25,0.21794494717703367,0.0,0.09090593428863096,62.53095837207682,0.1938514971071222,62.57795138864806,0.0,0,0.21782504166666664,0.0009621395549835149,-4.5203332574688506e-07,33.91999999999999,0.013416407865000306,2.083333898472922e-07,61.92966666666666,1.399353382419497,4.479999999999997,-0.0024591326115268575
S044,12040.0,12069.984375,W,-0.515390625,37.964910530886876,-58.89,161.24,220.13,-10.285,0.0,1656.25,1656.25,0.21710442555881315,0.22124323200571203,0.2139959598528284,62.53835006921248,0.2202739672174947,65.7875368135941,0.0020833333333333333,2,0.2178570583333333,0.0010479847509691522,1.1371943189003693e-07,33.923333333333325,0.01074967699773308,1.5277781922143738e-06,59.855000000000004,0.7579566830191111,2.3300000000000054,-0.0008478821744472046
S044,12070.0,12099.984375,N1,-0.05155729166666667,133.94975802641548,-793.75,598.45,1392.2,-9.115,0.0,1656.25,1656.25,0.9210306868078102,0.6413960468297952,1.2342932462378353,62.31955267303788,0.5307428433722124,64.69930447848725,0.052083333333333336,22,0.21738737499999997,0.0008496522137763175,-3.183041228038528e-07,33.92466666666666,0.01024152766382641,4.166667796948296e-07,60.312000000000005,1.4097787060386462,3.6300000000000026,0.002423542324094597
S044,12100.0,12129.984375,N1,0.6786041666666672,50.94709366843198,-175.81,186.42,362.23,-8.125,0.0,1656.25,1656.25,0.22838645595544604,0.16232629604869594,0.139283726964862,61.92354662345781,0.2076621594061088,63.229739838148944,0.07395833333333333,64,0.21769694166666664,0.0010697955357281501,2.746726005513763e-07,33.91866666666666,0.01606929439092651,-1.03472250290877e-05,60.59733333333334,0.6983119328463145,2.3999999999999986,-0.00035069453957642616
S044,12130.0,12159.984375,N1,-0.029145833333333943,91.8838778590468,-393.57,835.14,1228.71,-7.2,0.0,1656.25,1656.25,0.3817392125376811,0.4459878528957438,0.05581428468591172,61.97969278350395,0.33067979850143825,63.229739838148944,0.17916666666666667,142,0.21783572499999998,0.0009102589463306508,1.8319861740413756e-07,33.922,0.012220201853217483,6.9444463282471594e-06,60.800666666666665,1.9588737126783395,5.079999999999998,-0.003291598115125356
S044,12160.0,12189.984375,N1,-0.1449687499999999,30.343190957758935,-66.43,155.22,221.65,-5.41,0.0,1656.25,1656.25,0.3943557950069398,0.5407353773001068,0.34745478322925544,61.95887499071878,0.3803746633049622,67.23094525588644,0.16666666666666666,132,0.21804921666666666,0.0016326222577157509,-7.558695626816333e-07,33.91533333333333,0.01359738536958112,-7.222224181376207e-06,59.641666666666666,0.9554303858587616,3.1000000000000014,0.0017194796331053688
S044,12190.0,12219.984375,N2,0.11340104166666502,146.5300814169142,-1241.08,527.33,1768.4099999999999,7.49,0.0,1656.25,1656.25,39.19570947811833,11.496167415029019,30.919601567091842,63.698723853427595,3.7215135063718456,89.72736483370053,0.06041666666666667,22,0.21057669166666665,0.005564678400105184,5.302047879244707e-07,33.92733333333333,0.04697043987682314,4.319445616169198e-05,66.244,3.33164183749294,8.900000000000006,0.005761112673912943
S044,12220.0,12249.984375,N1,0.06944791666666654,47.332043856490124,-199.68,137.21,336.89,1.105,0.0,1656.25,1656.25,0.3155252867793994,0.6326991067815904,0.7966945601811413,64.2088442552829,0.5866098085517342,78.70832230456955,0.005208333333333333,5,0.214398375,0.0011817470898525663,1.693822725103826e-06,33.99633333333334,0.017603661235347855,2.1909728165616098e-05,69.62566666666667,1.2845431959347342,3.9099999999999966,-0.002211563099924885
S044,12250.0,12279.984375,N2,-0.47583854166666667,25.11970042004246,-95.67,63.92,159.59,2.5,0.0,1656.25,1656.25,0.29278802296010825,0.4433096406576334,0.39561397430660444,63.973831695392526,0.3368108414565598,65.22269543648132,0.25833333333333336,148,0.21645864999999997,0.0009781469355367857,8.084090734616653e-07,34.00966666666667,0.01448754254140093,-4.06250110202428e-06,64.65166666666667,1.691116166586107,4.520000000000003,-0.002932882740039805
S044,12280.0,12309.984375,N2,0.2097812499999999,20.79123247344054,-64.16,51.75,115.91,1.855,0.0,1656.25,1656.25,0.3952352938440594,0.4480753110527292,0.1767766952966369,63.915807639987214,0.3023387638912924,65.22269543648132,0.190625,87,0.2178677333333333,0.001079111028681576,6.160435698902868e-07,34.004333333333335,0.016669999666733406,-1.5312504153782085e-05,65.40133333333333,1.8094524647589447,4.799999999999997,0.003141736963361806
S044,12310.0,12339.984375,N2,0.10675000000000008,20.432552165091042,-62.93,47.51,110.44,1.84,0.0,1656.25,1656.25,0.42049155882332134,0.4330127018922193,0.13686723088047367,63.94453465874673,0.3221473932893216,65.22269543648132,0.19791666666666666,105,0.219148725,0.0010271629127723558,6.543827729987932e-07,33.995000000000005,0.009219544457292594,-4.4097234184359225e-06,68.417,0.6487225909431541,2.0400000000000063,0.0008373266160282693
S044,12340.0,12369.984375,N2,-0.38571354166666677,20.756678559041145,-61.42,48.07,109.49000000000001,0.49,0.0,1656.25,1656.25,0.5044065803138268,0.45167512292206957,0.2100321362646414,64.00073230430375,0.33852303641388465,64.96922348312314,0.240625,157,0.22013064166666665,0.000973160485187597,7.642091916800117e-07,33.995333333333335,0.008055363982395798,2.7083340680159487e-06,66.45566666666667,0.8540986802211762,2.6199999999999903,-0.0014040628808764317
S044,12370.0,12399.984375,N2,0.46834375000000006,28.7058466472599,-123.25,102.1,225.35,1.96,0.0,1656.25,1656.25,0.4062820500178006,0.279314326620665,0.36594982010288424,64.14288949438227,0.3064212429478741,64.93843238021688,0.03125,22,0.22115509166666666,0.0008206255032578661,3.172832891936014e-07,33.99266666666667,0.0089193921068398,4.861112429772395e-06,67.24633333333333,0.6015562225502192,1.789999999999992,0.0010505905627687072
S044,12400.0,12429.984375,N2,-0.254734375,19.540595330412618,-60.48,42.73,103.21,1.725,0.0,1656.25,1656.25,0.34037962619780227,0.427443953441072,0.4732010892140184,64.20183652988544,0.4767716328240027,73.50510186374821,0.0020833333333333333,2,0.22205141666666667,0.0009154381790826881,3.69109041099459e-07,33.99100000000001,0.009433981132056837,-2.3263895199623663e-06,66.59366666666668,0.4714974961639652,1.7000000000000028,-0.0007631599292426015
