participant_id,window_start_time,window_end_time,sleep_stage,BVP_mean,BVP_std,BVP_min,BVP_max,BVP_range,BVP_median,SDNN,median_nni,IBI_mean,x_std,y_std,z_std,mag_mean,mag_std,mag_max,movement_density,burst_count,EDA_mean,EDA_std,EDA_trend,TEMP_mean,TEMP_std,TEMP_slope,HR_mean,HR_std,HR_range,HR_trend
S045,5401.0,5430.984375,W,2.0431979166666676,176.76112329975163,-590.91,537.16,1128.07,-0.41500000000000004,0.0,812.5,812.5,40.465015700722546,27.11364457652682,27.51326668627337,71.1313987688041,20.888671791030042,147.42455697745882,0.15208333333333332,72,1.921143875,0.4362454907086636,-0.0003026339716346493,34.337999999999994,0.03859188170241633,6.326390605032099e-05,77.80833333333334,0.4378133798270166,1.25,-0.0007394793672632826
S045,5431.0,5460.984375,W,0.3313489583333337,81.27323817686379,-291.11,390.94,682.05,-0.46499999999999997,58.88071221090048,812.5,767.2932942708334,9.481560137387142,4.403040596344253,5.158212063565081,65.04154695400472,3.577458804328557,91.61877536837086,0.053125,23,1.6574763499999998,0.07197432879953912,7.109031051711983e-05,34.42733333333332,0.027194770739162332,4.486112328047132e-05,80.298,2.242169187788171,6.010000000000005,0.003895348278903069
S045,5461.0,5490.984375,W,0.0832552083333337,36.390700525933845,-143.15,262.92,406.07000000000005,2.39,44.80278409451088,718.75,706.9661458333334,4.452129640220884,1.315532211692287,2.981121153749598,65.01639755223276,0.9505082833352069,76.54410493303844,0.05625,23,1.685130625,0.017444660214548224,-9.327412903486564e-06,34.51966666666667,0.03410604377851726,5.656251534356202e-05,84.61633333333333,0.8794031435518567,2.1699999999999875,0.00149774346184447
S045,5491.0,5520.984375,W,0.011072916666666632,32.75261222716467,-81.54,58.09,139.63,6.779999999999999,18.959485811968417,718.75,723.73046875,0.9049865474368481,0.634195376868727,0.35058080529553626,64.9525935007504,0.34637050434080496,66.70832032063167,0.11041666666666666,73,1.6775313916666665,0.007732162958810236,-6.281055306275842e-06,34.59866666666667,0.024594488994262573,3.9791677460850424e-05,85.43833333333332,0.7847126154770855,2.5900000000000034,-0.0011910767119891236
S045,5521.0,5550.984375,W,0.0001770833333331723,43.39255972934156,-223.7,270.19,493.89,4.845000000000001,27.107716856860737,734.375,724.70703125,2.029681819874868,0.9337139988225635,2.620391954089227,64.97515745611834,0.6844683235629689,70.00714249274856,0.03958333333333333,18,1.6950674333333333,0.006653934442284676,-4.601985189340612e-06,34.67433333333333,0.026793448618811864,4.322917839333278e-05,83.32266666666668,0.5921313668060112,1.5500000000000114,-0.0010259030560717912
S045,5551.0,5580.984375,W,0.1880468750000009,122.06255793942937,-1042.42,429.62,1472.04,7.654999999999999,11.488625913947455,734.375,740.234375,18.38344465344808,15.575981408296467,18.09244487113145,65.22769041969877,5.692508455148479,99.82484660644363,0.084375,36,1.6195301583333335,0.11834561323766896,-7.906886671790003e-05,34.778,0.03290390047800903,5.319445887436613e-05,82.70433333333334,0.18472832905527825,0.6799999999999926,4.586806799806579e-05
S045,5581.0,5610.984375,W,-0.029375000000000047,48.58060745774534,-206.45,284.64,491.09,9.22,22.715487446898177,718.75,721.4436848958334,0.5301295373669429,0.5266796873390462,0.7365430467543783,65.02352480982593,0.47166863999422975,71.72168430816443,0.014583333333333334,11,1.6174977916666669,0.009641196491182901,-1.5578998366698797e-05,34.83933333333333,0.023795424396765474,3.3333342375579996e-05,83.53633333333333,0.33983803331718215,0.9200000000000017,0.000598020995556914
S045,5611.0,5640.984375,W,-0.17461979166666647,43.32838799218447,-95.38,71.08,166.45999999999998,12.655000000000001,13.086967364474527,734.375,737.6057942708334,0.5015589844978909,0.22465009443700565,0.4916743908291566,64.84698009375252,0.33448625352750555,66.07571414672717,0.3229166666666667,141,1.6036011833333332,0.003126825973153736,-4.0136048213988666e-06,34.922,0.026633312473918286,4.2222233675737793e-05,83.64833333333333,0.2631613362348047,0.9500000000000028,-0.0003221181429356918
S045,5641.0,5670.984375,W,0.23101562499999997,48.2806231335763,-101.4,82.9,184.3,14.809999999999999,31.668416652510615,765.625,767.8792317708334,0.3099899191909311,0.333644060901734,0.4939202853334624,64.68190724797832,0.3488668761382433,67.11929677819934,0.09479166666666666,56,1.599235925,0.0029963751132618456,-3.853748224215542e-06,34.995666666666665,0.02577897506797974,3.996528861905499e-05,81.60166666666667,0.8966161695818093,2.6899999999999977,-0.0016105212702151887
S045,5671.0,5700.984375,W,-0.42232291666666655,52.164437462220285,-115.71,80.15,195.86,15.61,19.363563402665005,765.625,769.8486328125,0.23042975776554747,0.4454193950649208,0.33579817847431315,64.65513197462857,0.37410026734985,66.61831579978588,0.18541666666666667,87,1.5952974916666667,0.0027429684953709016,-7.177165575403003e-07,35.072,0.01814754345175618,2.5347229098100286e-05,79.12100000000001,0.5553578425964053,1.8500000000000085,-0.000996979437114648
S045,5701.0,5730.984375,W,0.3022187499999998,53.555031720438265,-109.01,95.3,204.31,14.46,23.69768750425771,750.0,740.3157552083334,0.25642566810654677,0.5134381234357479,0.3317606127415771,64.78544376953177,0.39320340559704053,65.86349520030045,0.3375,132,1.593653825,0.002804746731473007,-2.5025629618498012e-06,35.126333333333335,0.01991370270832402,2.906250788370885e-05,78.73433333333332,0.290501673355288,0.8100000000000023,0.0005060070817076501
S045,5731.0,5760.984375,W,0.2284010416666665,56.78641756430038,-128.87,97.02,225.89,17.33,16.071499171766323,765.625,757.0393880208334,0.425,0.4252450274057691,0.4387432731361499,64.95998904095562,0.36490701865007275,66.12866246946176,0.008333333333333333,4,1.5874739333333332,0.002839069750033531,-2.808725588304453e-06,35.19766666666666,0.029403325586668142,4.822917974967064e-05,79.771,0.29217973920174456,0.9900000000000091,0.0005094793048717709
S045,5761.0,5790.984375,W,-0.10417187499999964,56.59375632561754,-117.31,99.05,216.36,13.545,20.49540633912121,734.375,732.0231119791666,0.47616701486103247,0.359633059520395,0.4190439991980423,64.99147720325828,0.3439587257597759,65.5286197016235,0.0010416666666666667,1,1.584752325,0.0022969711149050795,9.795095973062023e-07,35.276,0.023748684174076,3.7152787856116677e-05,80.29733333333334,0.2750991740364838,0.9200000000000017,0.00046138901404867003
S045,5791.0,5820.984375,W,-0.08997395833333316,57.55199899284332,-130.79,105.24,236.02999999999997,14.75,15.713049439520073,734.375,738.0859375,0.4911886359044422,0.42938404688835635,0.39122315314351674,64.94419057764469,0.3491444990744156,66.35510530471637,0.24375,135,1.5849337416666667,0.002658761614912202,-8.847817070262794e-07,35.32066666666666,0.019310331143947052,3.0138897064587833e-05,81.24166666666669,0.24679388611191813,0.730000000000004,0.00043190983938526476
S045,5821.0,5850.984375,W,-0.47671875000000036,56.51787856661729,-118.3,93.73,212.03,14.075,29.552369681203498,734.375,736.3525390625,0.2541239718239024,0.26013317903207445,0.4089798771706935,64.90705020410752,0.2716470776587068,65.86349520030045,0.051041666666666666,37,1.586812175,0.0028948066304518892,2.0714890601912496e-06,35.36533333333334,0.022171052197752755,2.7638896386417135e-05,81.32633333333334,0.26402630340344735,0.7000000000000028,-0.0004321181727751132
S045,5851.0,5880.984375,W,0.8558958333333336,59.77133755883737,-130.21,112.41,242.62,15.68,20.085042643321486,734.375,738.6311848958334,0.20374105297329417,0.4163006204622115,0.6845573070220069,64.87623933092512,0.2898050089146551,66.70082458260917,0.059375,39,1.58866935,0.0023231963887784665,-8.759116959394996e-08,35.42466666666666,0.016275407487646977,2.250000610352018e-05,81.49733333333333,0.11509223354432759,0.45000000000000284,7.82639101193323e-05
S045,5881.0,5910.984375,W,-0.37147395833333313,65.51572682430555,-421.16,232.58,653.74,9.975,30.158341356669744,734.375,730.078125,1.7109215657553292,2.492451929980574,3.875232967907292,64.82675188942052,1.7540280691919743,87.55569655939013,0.035416666666666666,12,1.5898541249999998,0.005257297305591062,-5.777925829515472e-06,35.455333333333336,0.014544949486180427,5.972223842290756e-06,81.99433333333334,0.36028399292163227,1.0,0.0005057987483177997
S045,5911.0,5940.984375,W,-0.38212499999999994,77.69120712035378,-361.2,227.57,588.77,9.27,34.67320648886987,734.375,731.494140625,0.24137913929933733,0.5768952762176357,0.5173204448969065,64.91869127652633,0.4471926613837749,66.73829485385434,0.1,76,1.5794902833333333,0.0020355681073651686,1.0903917888432512e-06,35.47333333333334,0.013498971154211063,2.8472229945815104e-06,82.34766666666668,0.3607370541297672,0.9000000000000057,0.0005819793245386627
S045,5941.0,5970.984375,W,0.5128750000000001,75.75415656751257,-178.5,169.65,348.15,15.615,38.40041438244492,750.0,747.4202473958334,0.3028922359474112,0.45889998115965674,0.5110582702153988,65.01880582702242,0.34262053054831615,66.55824516917495,0.035416666666666666,21,1.5823614166666666,0.0029027937421942512,3.251531263978724e-06,35.49066666666667,0.014360439485692496,1.2013892147865784e-05,81.43366666666667,0.5888320832140712,1.769999999999996,-0.0008564238434309481
S045,5971.0,6000.984375,W,-0.5291562500000002,79.75715519310114,-187.49,215.62,403.11,10.16,41.65209753909842,765.625,740.6656901041666,0.5845188845442796,0.6753053578855189,0.6806404956913745,64.90768705594807,0.5585272721872125,71.17583859709698,0.11666666666666667,83,1.5944222833333335,0.0042121463040104635,5.5740227794115785e-06,35.50566666666667,0.013828312341794526,1.4895837374088244e-05,81.14533333333333,0.18293411078552016,0.5700000000000074,-0.0003229861987267249
S045,6001.0,6030.984375,W,-0.4528229166666666,84.20422628045148,-203.43,154.03,357.46000000000004,16.335,25.302538540356025,750.0,750.1220703125,0.4999989149293782,0.4505735157058785,0.48890023266511135,64.92268389379751,0.3740423675354744,66.06057825965497,0.134375,95,1.599556125,0.003175746021442564,3.044254949070889e-06,35.541000000000004,0.01422439219556673,1.3090281328742107e-05,81.03166666666667,0.17966790352078987,0.5100000000000051,0.0001755208809464216
S045,6031.0,6060.984375,W,0.30533333333333296,82.7947705895259,-216.07,271.15,487.21999999999997,12.055,42.403308856058324,734.375,737.1744791666666,0.5365453003941046,0.6270790074601622,0.5483155629719279,65.04333977938812,0.46591345019068064,66.87301398920195,0.04895833333333333,31,1.6091299666666667,0.0037303558944005353,3.971317917566702e-06,35.57000000000001,0.016329931618557073,1.7500004747182843e-05,80.769,0.18544271352630773,0.5100000000000051,0.00023107645157238846
S045,6061.0,6090.984375,W,0.17315104166666687,85.54465433399693,-168.0,161.69,329.69,14.54,19.347990070826892,750.0,746.0286458333334,0.23683890079662917,0.26284492880255883,0.18356696760915953,65.12959854415688,0.23491518389701796,65.87108622149782,0.05,40,1.6151176833333334,0.003475509269597144,4.71265839644599e-06,35.616,0.01645195023900381,2.090278344802042e-05,81.089,0.06378871373527123,0.1600000000000108,0.00010350697252251228
S045,6091.0,6120.984375,W,-0.27982812500000037,85.95523587783474,-189.73,215.26,404.99,14.205,9.857948464678874,750.0,742.6595052083334,0.21383364185480472,0.37879875694607135,0.30798826411623764,65.09105505200206,0.29469286368111314,66.06057825965497,0.03229166666666667,25,1.6244781333333336,0.002830297575442478,2.8878410611548024e-06,35.657000000000004,0.022383029285598325,3.1215286245464735e-05,80.74133333333333,0.3596362359693801,0.9000000000000057,-0.0005694445989161813
S045,6121.0,6150.984375,W,-0.07744270833333318,87.35490104770315,-176.43,209.31,385.74,8.71,19.966980313303804,734.375,727.4820963541666,0.2270642193790607,0.3522851369392886,0.287905435743328,65.12650390869555,0.27941360739677956,66.46051459325304,0.0375,24,1.63114885,0.002910821168931527,3.2473350822848735e-06,35.71399999999999,0.017813852287849073,1.902778293939243e-05,81.115,0.2538733279938378,1.0300000000000011,0.00044725706577068876
S045,6151.0,6180.984375,W,0.8972031250000003,89.7935096731221,-247.33,211.16,458.49,9.184999999999999,14.080608153159778,718.75,711.2548828125,0.14707433282187615,0.28731689519394593,0.1962954432524267,65.14214325678286,0.22850290905829482,66.55824516917495,0.013541666666666667,6,1.6382786083333334,0.0034346583485984784,4.285296952391736e-06,35.76466666666667,0.01707499796648816,2.0000005425349255e-05,82.65333333333334,0.554137969181763,2.039999999999992,0.0009896530462383472
S045,6181.0,6210.984375,W,-0.059906250000000286,90.03358004442681,-201.16,213.26,414.41999999999996,7.475,13.1794713486315,718.75,720.5322265625,0.23418742493993994,0.2750946806707344,0.3678425746460328,65.13874634399376,0.21402819014125063,66.06057825965497,0.03333333333333333,21,1.644533208333333,0.0031394540738155815,2.515717479307063e-06,35.80833333333333,0.015509853498842652,1.593750432332411e-05,84.529,0.34150012201071495,1.0700000000000074,0.0006030904413765301
S045,6211.0,6240.984375,W,-0.07157291666666694,89.42666031519963,-215.33,221.26,436.59000000000003,11.01,12.827338333573273,718.75,718.75,0.21027996797259496,0.3798242923452311,0.31677629681247016,65.14319222660748,0.27561723567668794,66.6783323126786,0.03125,20,1.6487810916666668,0.003753999518282324,5.52529077834494e-06,35.845,0.026677081299621774,3.864584381668926e-05,84.75466666666668,0.18047591405934305,0.6300000000000097,-0.0002603472928459454
S045,6241.0,6270.984375,W,-0.34201562500000005,89.85662920122257,-197.45,208.27,405.72,7.655,26.523655182175037,718.75,710.2783203125,0.17399263633843817,0.23623337316565207,0.2065312686509129,65.14560744226,0.20370970920960335,66.06057825965497,0.016666666666666666,14,1.6577680750000001,0.0037213235574691606,4.974044969087688e-06,35.891666666666666,0.02222361106771089,2.7812507544624927e-05,84.42333333333335,0.2101163698736696,0.5600000000000023,0.0003530556513280284
S045,6271.0,6300.984375,W,0.24135937499999957,90.4204117976827,-180.05,189.9,369.95000000000005,13.515,30.166552139472287,734.375,732.0556640625,0.16039975560212746,0.28817666444484286,0.26499926297067317,65.16489635873197,0.19319477837192123,66.06057825965497,0.020833333333333332,12,1.6665201,0.0034945483480224885,4.521441330686123e-06,35.93933333333333,0.01913693345921124,2.472222892855816e-05,84.048,0.2450496548321039,0.8499999999999943,-0.00043604178495057076
S045,6301.0,6330.984375,W,0.06554166666666678,91.95817000373465,-217.4,206.99,424.39,13.225,12.421485900116382,734.375,733.6995442708334,0.30123984249818836,0.3274944337949374,0.3256787117143043,65.1466137559648,0.24993225310580935,66.46051459325304,0.04791666666666667,38,1.6768305166666666,0.0035523873169633698,5.186871198695529e-06,35.97933333333334,0.016719914938646295,2.2638895030083592e-05,82.75299999999999,0.6669540214037729,1.769999999999996,-0.0011818405983725548
S045,6331.0,6360.984375,W,0.11919270833333365,94.80891086825838,-190.36,227.69,418.05,12.26,9.126187158754389,734.375,727.8483072916666,0.4424521317486095,0.2796462764467919,0.30819253542045577,65.10956332121205,0.2371127462097942,66.06057825965497,0.0375,27,1.6865004749999999,0.004490782535673301,6.8337568450946235e-06,36.017666666666656,0.020278614899006137,2.0798616753096185e-05,81.96266666666666,0.032550814975288375,0.10999999999999943,3.7500010172518393e-06
S045,6361.0,6390.984375,W,-0.6405572916666668,88.09081444885354,-179.91,184.86,364.77,1.7850000000000001,28.671549033824864,671.875,677.63671875,0.4867649372815041,0.2616533137516554,0.3962593650312886,65.10329384261904,0.2862938611579124,66.19667665374146,0.10729166666666666,71,1.694441283333333,0.002645904014331512,2.562926476488314e-06,36.05533333333334,0.01783878421367997,1.4861115142447465e-05,83.41633333333333,1.103504971543953,3.1499999999999915,0.0019755213692278
S045,6391.0,6420.984375,W,0.6279322916666662,88.21664763609908,-184.24,167.06,351.3,14.825,11.04506326411215,734.375,737.4755859375,0.48106056877833314,0.2912776423458477,0.4996081363734538,65.21734395351329,0.3229514656159985,66.19667665374146,0.303125,152,1.7013149416666666,0.0026481788814700364,2.490227889059203e-06,36.07933333333334,0.012364824660662284,1.0277780565805229e-05,85.098,0.10527424503014221,0.28999999999999204,-0.00017041671289515667
S045,6421.0,6450.984375,W,-0.30638020833333335,89.4352297794286,-182.34,179.69,362.03,8.625,20.19902673733043,718.75,721.3053385416666,0.4377776896503013,0.2818281095514309,0.4874454652545475,65.05876608753954,0.26940706526798236,66.19667665374146,0.059375,52,1.7102911666666667,0.0034880924450988444,4.9325430047046056e-06,36.107333333333344,0.022350739485653335,3.0555563844281853e-05,83.60799999999999,0.8330002000800082,2.469999999999999,-0.0014961115169573344
S045,6451.0,6480.984375,W,0.460140625,90.40331977237142,-218.32,178.47,396.78999999999996,14.605,30.207025565417045,750.0,745.4182942708334,0.2553570994977208,0.2701734750067486,0.5082265939847435,65.09161762082508,0.27398084658388466,65.79513659838392,0.040625,34,1.7187550583333333,0.004303143396200484,6.192897296250348e-06,36.13533333333333,0.012578641509407735,9.305558079849294e-06,82.15433333333334,0.15197989633135306,0.4399999999999977,-0.00026760423925896193
S045,6481.0,6510.984375,W,-0.17525520833333325,90.50434824692975,-171.26,204.52,375.78,6.78,21.992534170209613,718.75,711.1165364583334,0.19336880062604608,0.2646714912186216,0.5071012647473218,65.09873862334301,0.2814776184167072,66.19667665374146,0.021875,14,1.7268453166666664,0.0037164201053866623,5.283060460899643e-06,36.16499999999999,0.011180339887499901,1.1979169916225055e-05,82.27966666666667,0.11762888911978978,0.4300000000000068,3.420139816661223e-05
S045,6511.0,6540.984375,W,-0.17835937499999974,90.6404140475682,-248.64,169.83,418.47,7.41,17.5631687916353,703.125,707.5520833333334,0.22791085839643532,0.34162696669759546,0.5732678847697064,65.11100828276736,0.29463322069185394,66.19667665374146,0.015625,10,1.7363019333333332,0.003866470073450583,5.162363813575266e-06,36.18666666666666,0.016996731711976562,1.4583337289317777e-05,83.69933333333333,0.7764617755491177,2.3299999999999983,0.001384722597852267
S045,6541.0,6570.984375,W,0.20360937499999993,87.2475044488112,-190.81,182.92,373.73,6.87,26.570156963486003,703.125,695.3043619791666,0.23481671339342286,0.3192585132206953,0.4249068014642218,65.1981017088653,0.2836374924516805,66.19667665374146,0.019791666666666666,14,1.7531228833333334,0.0073942990790014885,1.1880439420692124e-05,36.21033333333333,0.016017351702311007,1.5729170933476176e-05,85.71266666666666,0.5176802960214827,1.4899999999999949,0.0008983335770219142
S045,6571.0,6600.984375,W,-0.33752604166666644,91.61188434364897,-234.16,178.12,412.28,8.39,23.29129286200522,718.75,708.4228515625,0.17116012950028858,0.13188915142607024,0.41962362227953753,65.20633919731833,0.21162896210440404,65.32227797620043,0.0,0,1.7671154750000004,0.0037300957270167043,4.9261135324743525e-06,36.23533333333333,0.01707499796648816,2.2638895030083274e-05,85.75566666666667,0.20107516560287322,0.6800000000000068,-0.0002980903586399648
S045,6601.0,6630.984375,W,-0.1427552083333333,90.2126520255432,-216.07,192.66,408.73,8.27,17.5490735017461,718.75,713.0777994791666,0.30889412684158013,0.2730994934695656,0.38394284649541266,65.20970154730065,0.25623708808136125,66.19667665374146,0.011458333333333333,10,1.7799448416666668,0.004591735147697142,6.728509854739015e-06,36.26866666666667,0.013597385369580654,8.61111344702411e-06,85.08266666666667,0.38425628022049124,1.1599999999999966,-0.000670069626212463
S045,6631.0,6660.984375,W,0.26404166666666656,88.24898295753856,-168.89,163.78,332.66999999999996,10.895,30.508436130689834,718.75,726.708984375,0.3872086718496314,0.30417915214100755,0.38783587594066987,65.20993258187383,0.2797040116541964,66.4304147209695,0.025,12,1.7901591666666665,0.0033103325193836702,3.854993233233887e-06,36.29,0.012649110640673249,1.3750003729927498e-05,83.99466666666667,0.3723057286096397,1.0799999999999983,-0.0006250696140054272
S045,6661.0,6690.984375,W,0.16629687499999998,89.89627473038828,-201.43,167.59,369.02,7.12,21.89017934781973,718.75,711.3850911458334,0.4330127018922193,0.12447371850002001,0.33772497645602434,65.1989825326592,0.2090893891791587,65.94694837519019,0.003125,3,1.7975771083333332,0.003334356913998627,3.503365316668096e-06,36.32000000000001,0.013662601021279348,1.652778226122614e-05,83.63333333333334,0.06754422419587487,0.21000000000000796,8.798613497888023e-05
S045,6691.0,6720.984375,W,0.17560416666666684,88.25345509141545,-197.11,155.84,352.95000000000005,10.61,32.36135530902663,734.375,727.7994791666666,0.38522517765587433,0.16080513029924,0.3518906647391425,65.2056554699267,0.22266133600826418,65.94694837519019,0.00625,6,1.8035113916666667,0.003752951559097245,4.735556623143587e-06,36.34133333333334,0.013597385369580224,1.2500003390842e-05,83.91000000000001,0.18820201911775525,0.5400000000000063,0.00026395840493663214
S045,6721.0,6750.984375,W,-0.8043750000000005,94.08834650943871,-199.67,171.72,371.39,17.630000000000003,26.70795656435396,765.625,763.6311848958334,0.4531417621420721,0.21106284855859087,0.40555496099651994,65.16853037802679,0.25442425500016097,66.82813778641449,0.011458333333333333,7,1.809552425,0.00393034224053178,5.364548113212943e-06,36.382999999999996,0.013940349110884489,1.3854170424850947e-05,82.38533333333332,0.9777686615736639,3.0799999999999983,-0.0017609032554533556
S045,6751.0,6780.984375,W,0.8239166666666667,92.81240669508965,-218.45,189.82,408.27,13.105,26.285075363503616,734.375,736.7268880208334,0.41015219905406924,0.2163459164291195,0.33530665897884515,65.2029136115886,0.23903952193978228,66.19667665374146,0.009375,7,1.8171411083333335,0.0033792360102934313,4.286866397261933e-06,36.40999999999999,0.013662601021279173,1.486111514244643e-05,80.64900000000002,0.16444553302942946,0.5300000000000011,-0.00025565979157437944
S045,6781.0,6810.984375,W,-0.3862916666666669,89.96057648642041,-192.25,159.64,351.89,14.08,14.243387156535913,734.375,738.0208333333334,0.49132116214854826,0.2920217332808182,0.3110731313623141,65.16735443409412,0.2762837813177076,66.19667665374146,0.016666666666666666,11,1.8257865166666667,0.0033096427475467543,3.950414700090783e-06,36.43866666666666,0.016069294390926855,1.70138935042047e-05,80.67166666666665,0.4873608063391596,1.3799999999999955,0.000828090502411704
S045,6811.0,6840.984375,W,0.36944791666666654,93.51237532689744,-183.4,183.42,366.82,14.745000000000001,14.644955821765295,750.0,741.7805989583334,0.4999989149293782,0.18434557203945953,0.19927984493476059,65.16602414313361,0.2059669306660656,66.19667665374146,0.007291666666666667,5,1.83311895,0.0036128175981496803,4.469977775059081e-06,36.47533333333334,0.013597385369581657,8.888891300154982e-06,81.13933333333334,0.2455461033877101,0.6999999999999886,-0.0004047223320101782
S045,6841.0,6870.984375,W,-0.4911197916666666,94.81185500135598,-194.59,195.27,389.86,16.57,36.78186551910287,765.625,771.7529296875,0.4843201133777351,0.2443013706924753,0.3176997949672335,65.10376713449521,0.2490078260225597,66.19667665374146,0.0125,9,1.8436641833333334,0.00427338738392104,6.598015244687289e-06,36.50233333333333,0.015205992970609455,1.2604170085766709e-05,80.51833333333333,0.5962778062465688,1.5799999999999983,-0.0010138544416922826
S045,6871.0,6900.984375,W,-0.3464114583333335,93.71180228991678,-200.29,170.25,370.53999999999996,11.58,32.406247827179754,750.0,747.1435546875,0.4632302324588594,0.20790581133986824,0.2917856900001933,65.09845513962382,0.2247519396678389,65.94694837519019,0.009375,5,1.8539852749999999,0.003585809782932584,4.533657696847256e-06,36.52566666666666,0.01801542548916146,8.645835678666265e-06,79.80266666666667,0.2310690132598673,0.7000000000000028,-8.409724503505943e-05
S045,6901.0,6930.984375,W,0.7219322916666663,93.31132435275026,-180.19,163.98,344.16999999999996,18.4,16.503165866112816,750.0,757.9345703125,0.3894760881798636,0.09636964965693294,0.13928372696486196,65.10010932450265,0.14337923305054062,65.32227797620043,0.18333333333333332,121,1.8644449666666665,0.003431953335767977,4.215659129681859e-06,36.556,0.018726095873584484,2.4375006612143632e-05,79.70766666666667,0.36591149506707393,0.9099999999999966,0.0006131598885524848
S045,6931.0,6960.984375,W,-0.7920312499999997,94.46865642811036,-199.4,189.67,389.07,12.16,12.734439904295233,750.0,742.48046875,0.2814409074299612,0.17836241487955545,0.1443225313509833,65.06770708590054,0.15730411135772973,65.94694837519019,0.07708333333333334,63,1.8740189416666666,0.004108326446165627,5.550717868575822e-06,36.585333333333345,0.012310790208413427,3.9583344071004605e-06,79.735,0.24231866072040947,0.7800000000000011,7.593752059936986e-05
S045,6961.0,6990.984375,W,0.7393437500000002,94.15492073343451,-185.8,160.63,346.43,13.46,29.47520482160466,734.375,741.7399088541666,0.2706008617667151,0.1788241639075162,0.17950549357115014,65.05968980557475,0.17167042763933862,65.94694837519019,0.07083333333333333,56,1.8824294583333334,0.0031692494613494615,3.694835854718923e-06,36.60800000000001,0.013999999999999447,1.2152781074429593e-05,80.45333333333335,0.2868371586031962,0.8100000000000023,0.0005086806935440239
S045,6991.0,7020.984375,W,-0.6912135416666672,94.95613054160098,-190.31,183.22,373.53,10.555,18.555670818128227,734.375,738.5823567708334,0.20412148734815308,0.2306297989563939,0.16129023507502108,65.05261032703032,0.18135500971223534,65.94694837519019,0.03958333333333333,33,1.893615075,0.0051708116612425165,8.158948610825882e-06,36.62866666666667,0.013597385369580654,4.722223503207181e-06,81.29966666666665,0.1771342867870459,0.5699999999999932,0.0002291320066004776
S045,7021.0,7050.984375,W,0.6265052083333335,95.11652361996231,-184.88,196.96,381.84000000000003,13.855,27.480976961906137,750.0,745.7682291666666,0.16627231993028782,0.2054989481927665,0.11632669960790029,65.0571512773325,0.16261204836600254,65.94694837519019,0.028125,24,1.9072981916666665,0.004688436730040964,7.2383984479162525e-06,36.64399999999999,0.011135528725657828,6.944446328244692e-06,81.33333333333333,0.1217191667550991,0.4200000000000017,-0.00012347225571621184
S045,7051.0,7080.984375,W,-0.03681250000000003,91.7715380546887,-178.03,201.54,379.57,5.495,20.340624518228495,734.375,726.7252604166666,0.21721684953571677,0.3093434327329416,0.20865600012673705,65.05280231115945,0.2384738948840251,66.36264009214823,0.042708333333333334,32,1.9191454916666666,0.0036441050044234216,5.414854984498399e-06,36.64866666666665,0.008055363982394778,-1.3888892656489365e-07,81.09433333333332,0.2686346134725668,0.8299999999999983,0.00036399315429501753
S045,7081.0,7110.984375,W,0.10310416666666639,93.7588658916095,-213.41,194.6,408.01,14.805,26.336293901136543,750.0,752.3193359375,0.17057907908715597,0.2560381915956203,0.15805897281992215,65.04437705278629,0.2037493925623889,65.94694837519019,0.025,19,1.933702375,0.007903569031417085,1.2823457254627099e-05,36.653333333333315,0.007888106377464586,2.7777785312978774e-06,81.43833333333332,0.17357195113906643,0.45000000000000284,-0.00029871535880950594
S045,7111.0,7140.984375,W,0.14649999999999974,93.23536350526196,-208.28,178.07,386.35,15.605,14.678190180111953,750.0,750.2848307291666,0.07905694150420949,0.16266017746619277,0.09636964965693295,65.05136672233304,0.13654995376834747,65.49045732013177,0.007291666666666667,7,1.947981025,0.003707143294736296,4.614150340210047e-06,36.66633333333333,0.009826268648657122,7.881946582560292e-06,80.94033333333333,0.4146523309419043,1.1499999999999915,-0.0007077432475431957
S045,7141.0,7170.984375,W,-0.020937499999999904,93.52862180156544,-180.8,180.35,361.15,8.440000000000001,32.929251112232926,734.375,731.5348307291666,0.07210109366946754,0.18410997902069293,0.12059963032005251,65.05360187437188,0.163706558778452,65.94694837519019,0.017708333333333333,14,1.959999175,0.00545971501341493,8.660505604520841e-06,36.67399999999999,0.012000000000001284,1.805556045344138e-06,80.83233333333332,0.5366916143269692,1.3799999999999955,0.0009403821995394407
S045,7171.0,7200.984375,W,-0.013812499999999398,95.37807028504076,-190.55,170.85,361.4,16.15,10.942146283203929,750.0,751.5706380208334,0.0,0.1821904480893551,0.17116012950028855,65.05191720771751,0.1585904587310762,65.49045732013177,0.021875,21,1.9795952833333337,0.007984488679290755,1.3559146907320664e-05,36.675666666666665,0.015423647068346927,1.163194759981319e-05,81.3523333333333,0.060865060219767356,0.20000000000000284,-8.114585534556048e-05
S045,7201.0,7230.984375,W,-0.004015625000000611,93.28187259239336,-187.7,162.28,349.98,17.47,22.208442654319736,765.625,769.921875,0.032258047015004204,0.11557806855349137,0.04559597630883184,65.05849736660771,0.10329762386917715,65.49045732013177,0.003125,3,1.995925333333333,0.0044254280288904,6.605024795199845e-06,36.68633333333333,0.015807874268506262,1.631944887137923e-06,80.10633333333332,0.8254957433095722,2.319999999999993,-0.0014673962313900375
S045,7231.0,7260.984375,N1,-0.23724479166666707,91.81730046823098,-209.32,154.38,363.7,19.13,19.766480331443233,765.625,773.8444010416666,0.03225804701500421,0.1462753717308556,0.111725730648266,65.05215078154765,0.1329612529588278,65.49045732013177,0.007291666666666667,7,2.006801416666667,0.004373585763008288,6.2665507450495555e-06,36.69566666666666,0.019779338265529276,-1.7708338137033622e-06,78.36166666666668,0.37274730791188276,1.019999999999996,-0.0006555210111547883
S045,7261.0,7290.984375,W,-0.3094114583333332,94.09007566731307,-182.26,165.11,347.37,13.149999999999999,39.04041852961,750.0,752.4332682291666,0.0,0.09636964965693294,0.14311453746329664,65.05335161883417,0.10198769365950303,65.49045732013177,0.0010416666666666667,1,2.022885958333333,0.005543490926897689,9.10309253013574e-06,36.702,0.018511257835886353,2.0416672205042726e-05,78.266,0.1710672382427451,0.5999999999999943,0.00022277783821013293
S045,7291.0,7320.984375,N1,-0.364052083333333,93.89017931670111,-196.29,176.7,372.99,18.79,16.554102658233575,781.25,774.90234375,0.06441510347391793,0.12801909579781012,0.04559597630883184,65.0565564462297,0.11494937376132773,65.49045732013177,0.00625,6,2.0400700166666668,0.005288969835080271,8.639423350538035e-06,36.712333333333326,0.013828312341793271,-4.8958346614126804e-06,79.10233333333333,0.19688716452718524,0.6799999999999926,0.00014767365117015205
S045,7321.0,7350.984375,N1,0.8092552083333333,96.0966014190358,-191.33,169.7,361.03,20.119999999999997,31.582650235118873,781.25,780.6722005208334,0.0,0.10152910775842672,0.0,65.06008791335253,0.08875456893138661,65.06919393998976,0.0,0,2.0512128416666666,0.0047362745292685,6.68723293381972e-06,36.717666666666666,0.013085190950925678,-2.534722909809805e-06,78.38466666666667,0.20793802495508598,0.9199999999999875,-0.0003009028594029024
S045,7351.0,7380.984375,N1,-0.17615104166666667,94.08076419208535,-189.78,156.24,346.02,15.004999999999999,32.89778087150611,765.625,761.8896484375,0.0,0.10152910775842672,0.04564354645876384,65.06010116552072,0.09075424072251354,65.49045732013177,0.0010416666666666667,1,2.063230891666667,0.005235271390284433,8.062909522273637e-06,36.708999999999996,0.015132745950420816,1.0034724944314937e-05,77.32266666666668,0.324909560065908,0.9900000000000091,0.0002342361746517412
S045,7381.0,7410.984375,N1,0.15185416666666698,91.72589023711481,-219.02,205.73,424.75,19.185,33.514095964111284,781.25,776.7985026041666,0.07880950133074056,0.12499565964686758,0.24816820222829156,65.04272816772138,0.13606064788962305,65.94694837519019,0.009375,6,2.076988891666667,0.003780227093698282,4.937637841156101e-06,36.708999999999996,0.018138357147216098,-2.3506950821111662e-05,77.727,0.16953170794869057,0.5,-0.0002603125706143061
S045,7411.0,7440.984375,N1,0.1280416666666664,91.55794594145883,-206.09,169.65,375.74,20.395000000000003,21.866774147727092,765.625,771.7041015625,0.09090593428863095,0.12426432820358739,0.09668440031302304,65.0616965998904,0.11461040009831963,65.94694837519019,0.014583333333333334,8,2.08859065,0.004567001522972534,7.140775374559332e-06,36.687999999999995,0.020880613017822524,-5.1388902829023545e-06,78.171,0.3248933158233119,0.9500000000000028,-0.0003247570325404272
S045,7441.0,7470.984375,N1,0.011802083333333139,92.0348198106881,-199.31,188.6,387.90999999999997,21.630000000000003,32.67307835539945,765.625,766.3899739583334,0.03225804701500421,0.11110243021644486,0.06441510347391795,65.0602856013134,0.10138610456541561,65.49045732013177,0.005208333333333333,5,2.100597983333333,0.0034230238410488294,4.584328500523102e-06,36.696,0.017048949136726395,1.0486113955651977e-05,78.06,0.25367958793196843,0.75,0.00044451400947103135
S045,7471.0,7500.984375,W,-0.14566145833333338,90.00075927098693,-178.19,152.54,330.73,13.3,23.5248154275653,734.375,735.3678385416666,0.03225804701500421,0.09090593428863095,0.07216126567549164,65.06212427340434,0.08651607995364785,65.49045732013177,0.003125,3,2.1113992833333333,0.005309198612131167,8.399686740366407e-06,36.69566666666666,0.01801542548916245,7.291668644666296e-07,78.77966666666666,0.6184307200936536,1.8299999999999983,0.0010453127835592397
S045,7501.0,7530.984375,W,-0.1368333333333328,103.3245312689653,-488.63,471.99,960.62,-3.8200000000000003,22.78264477016495,734.375,726.4973958333334,11.755855099620101,7.870022608568225,8.456574055033391,65.30352559938392,4.316219714512303,100.34440691936945,0.07083333333333333,28,1.9438078333333333,0.09808765372022561,-0.00015378504605714137,36.69066666666666,0.02862788073811216,-4.4861123280470606e-05,80.30333333333334,0.21862194664661502,0.8700000000000045,0.00028020840934472906
S045,7531.0,7560.984375,W,0.056010416666666764,40.584937033079875,-73.64,77.45,151.09,-3.84,10.672340269978715,734.375,737.5895182291666,0.4558062434820549,0.47775948265198137,0.5061428213020072,64.7751844776816,0.2966072863516616,66.37770710110436,0.090625,54,1.7972426500000003,0.023200072988983612,-4.160235937564004e-05,36.622,0.019731531449264234,-3.069445277084685e-05,81.19633333333333,0.13953454371190163,0.45000000000000284,-8.218752229479318e-05
S045,7561.0,7590.984375,N1,-0.03206770833333348,42.83775299684068,-100.92,111.33,212.25,-1.495,25.455312896212792,765.625,770.0520833333334,0.05581428468591172,0.28103965899950056,0.23584032675143204,64.75649315525122,0.23436630994655946,65.4446330878247,0.07291666666666667,42,1.7327334333333335,0.013989323758812958,-2.4911521080599238e-05,36.58466666666668,0.014544949486181163,-1.8333338306570304e-05,80.652,0.25534812837901655,0.9699999999999989,-0.0002907639677636629
S045,7591.0,7620.984375,W,0.04927083333333364,41.05089134981297,-73.53,100.66,174.19,-2.01,22.60609772340023,765.625,764.2415364583334,0.11557806855349138,0.26672362672915867,0.23825719937822562,64.7597568063865,0.2039772316029616,65.4446330878247,0.06145833333333333,40,1.6933277083333331,0.010039310261330895,-1.760753277114061e-05,36.541666666666664,0.01881193474602921,-2.3298617431264766e-05,79.13100000000001,0.3996027193767999,1.3299999999999983,-0.0007147571383347275
S045,7621.0,7650.984375,W,-0.022786458333333245,51.94767374078843,-202.74,151.75,354.49,1.5950000000000002,24.69816790232682,781.25,782.177734375,14.87624819693012,10.72767986259727,16.300450497300083,64.87924271232589,3.253285274166627,92.2496612459905,0.046875,24,1.7739962750000002,0.10306058255681158,0.0001481578190532278,36.52133333333333,0.015860503004493792,-1.0208336102521622e-05,77.79466666666667,0.3348903634856576,1.0100000000000051,-0.0002745139633555666
S045,7651.0,7680.984375,N1,0.16773958333333328,68.81886314354287,-134.65,120.42,255.07,11.415,14.3124420705305,765.625,770.8902994791666,0.11131708339493787,0.21137108216357317,0.3197747009614738,64.69804840390323,0.1990378344185678,65.70388116390082,0.058333333333333334,34,1.881945575,0.01093548856831318,1.931134746944103e-05,36.522999999999996,0.02051828452868226,2.69791739852348e-05,78.91366666666667,0.09714193510300012,0.3499999999999943,-5.802084907249524e-05
S045,7681.0,7710.984375,N1,-0.7633177083333332,82.1514999380153,-179.61,143.03,322.64,12.059999999999999,24.719539352697566,781.25,782.9020182291666,0.09107288747664329,0.16827350421923892,0.4984306970103488,64.74714715000121,0.17277905763696483,65.70388116390082,0.036458333333333336,30,1.9154062250000001,0.01103453754238821,1.9243879569194743e-05,36.565333333333335,0.011175369742827805,8.12500220404851e-06,78.75099999999999,0.2888984827466788,1.25,-0.0003077431390362243
S045,7711.0,7740.984375,N1,0.7445000000000003,79.20881116588293,-150.37,135.8,286.17,11.37,14.02990071229008,765.625,758.3170572916666,0.04559597630883185,0.1821904480893551,0.4030913530316532,64.81463519875273,0.1754205972467732,65.70388116390082,0.036458333333333336,30,1.9521329750000003,0.01102069570358612,1.9311424292378543e-05,36.59266666666668,0.013399834161493858,1.66666711877898e-05,77.53966666666665,0.11956820461793066,0.45999999999999375,0.000192187552134208
S045,7741.0,7770.984375,N1,-0.0835781250000002,88.09309473954681,-183.94,278.97,462.91,10.01,26.416410489048573,765.625,772.9248046875,0.192525250869132,0.29788024252858547,0.44235402488655323,64.84804620105743,0.2534506635531483,65.94694837519019,0.0875,62,1.9797233833333332,0.007096336178131323,1.2201645671019326e-05,36.607333333333344,0.012364824660660214,6.6666684751152e-06,78.52333333333334,0.34599935773864665,1.0500000000000114,0.000591041826997024
S045,7771.0,7800.984375,N1,0.2396770833333339,90.4512534347455,-187.69,184.27,371.96000000000004,9.64,30.005848455793682,765.625,770.8821614583334,0.12011279421166314,0.26836818808308854,0.47356783363690946,64.82091630592171,0.2412141386675559,65.70388116390082,0.07916666666666666,58,1.9996183833333334,0.005898354739788774,9.351061130387653e-06,36.61866666666666,0.01334998959633437,8.12500220404856e-06,78.501,0.13397387805091093,0.5300000000000011,-0.0002235764495378848
S045,7801.0,7830.984375,N1,-0.9030833333333332,88.43633238141658,-168.71,152.0,320.71000000000004,9.004999999999999,18.638148295771646,765.625,763.1266276041666,0.11110243021644485,0.28103965899950056,0.39114409953011203,64.85737492380166,0.2501692628792732,65.70388116390082,0.084375,59,2.017015616666667,0.006765521644317049,1.1555198013020318e-05,36.63133333333334,0.011469767022722982,4.1666677969384196e-07,78.11333333333332,0.09512564790259836,0.38000000000000966,0.00010541669526277564
S045,7831.0,7860.984375,N1,0.4634427083333334,88.42461220624517,-163.49,176.74,340.23,9.56,27.547400063900625,765.625,764.9983723958334,0.16324615020133107,0.2594042821489696,0.33306629928922893,64.8492155725293,0.23064683166428326,65.70388116390082,0.07291666666666667,50,2.0381594499999998,0.007228948179426475,1.2218215553986424e-05,36.642333333333326,0.012565384549979228,1.0069447175961223e-06,78.47766666666666,0.053708058571831016,0.19999999999998863,8.093752195570396e-05
S045,7861.0,7890.984375,N1,0.19776562500000025,88.79381928188369,-168.03,160.58,328.61,9.0,15.726994244445331,765.625,762.5813802083334,0.06441510347391792,0.20219874281810518,0.2599996661322642,64.8446312934221,0.18211924704193738,65.70388116390082,0.042708333333333334,33,2.056549433333333,0.0064258413116277755,1.0884672223489644e-05,36.64166666666666,0.010354816378003985,-5.729168220801871e-06,78.691,0.04777377244192891,0.1599999999999966,3.788195472058124e-05
S045,7891.0,7920.984375,N1,0.016468750000000063,89.71805187368616,-203.37,179.24,382.61,1.7799999999999998,47.043993755770146,750.0,748.6572265625,0.638343668323646,0.674832798221571,1.3978650481031183,64.89899636646204,0.48138234209305925,70.83784299369935,0.04479166666666667,21,2.0911308749999997,0.005927931327709693,8.81848611612582e-06,36.64433333333332,0.009551032521261035,-3.993056638740698e-06,78.85433333333334,0.1564967163304761,0.44999999999998863,0.00026211812665964337
S045,7921.0,7950.984375,N2,-0.11683333333333354,93.51992784112764,-196.82,162.49,359.31,9.86,16.95957293654518,781.25,778.3528645833334,0.17399263633843817,0.08507936450096985,0.1529193630552463,64.89631838203665,0.09760698744001742,65.79513659838392,0.03125,30,2.1164157583333334,0.008922360036257052,1.5288968774134298e-05,36.63533333333333,0.014544949486180122,-4.1666677969479255e-06,78.45633333333335,0.267874141259576,0.8299999999999983,-0.00045260428944343645
S045,7951.0,7980.984375,N2,-0.37973437500000007,101.01525288128039,-198.73,172.3,371.03,13.32,39.162448595050265,796.875,793.0094401041666,0.1496378730654628,0.08507936450096985,0.3443744328488978,64.91469854756348,0.11009456068918295,65.79513659838392,0.14479166666666668,103,2.1412311750000006,0.00643117173183665,1.0848020954866758e-05,36.62466666666668,0.012578641509409341,5.277779209467619e-06,77.18766666666667,0.6977376934700388,1.8200000000000074,-0.0012274656107491356
S045,7981.0,8010.984375,N1,0.5870520833333333,95.71877927824885,-197.46,199.2,396.65999999999997,8.635000000000002,19.04213232393403,765.625,760.3434244791666,0.15699820858850588,0.12074350109035084,0.3088941268415802,64.90689191812164,0.12317952727870687,65.92419889539804,0.10729166666666666,83,2.1643707916666672,0.0073521688261535415,1.2305214926544835e-05,36.63,0.013662601021279173,4.0277788703821936e-06,76.84933333333332,0.257797508823408,0.8599999999999994,0.0004615973474385151
S045,8011.0,8040.984375,N2,-0.24771354166666656,89.00025988568812,-183.14,189.53,372.66999999999996,5.6,16.422485714457423,750.0,748.0794270833334,0.07902948640996105,0.0,0.436561493377508,64.93258999461334,0.06774898355681337,65.46754921333164,0.25729166666666664,145,2.1819710249999997,0.005163575983854745,5.665830747024382e-06,36.638999999999996,0.013503086067017727,-8.229168898969714e-06,78.60566666666666,0.8758754985092868,2.430000000000007,0.0015542018104931158
S045,8041.0,8070.984375,N1,-0.7195364583333334,85.97143751793216,-200.57,186.19,386.76,2.915,32.52932045106502,734.375,728.2470703125,0.14379528272281164,0.10172129679778086,0.4816049827140496,64.94997184259049,0.1212407248809834,65.79513659838392,0.013541666666666667,11,2.186859316666666,0.005159624442055429,7.665226471686912e-06,36.63133333333334,0.01257864150940831,-4.722223503207008e-06,80.20933333333333,0.37531261044035785,1.3900000000000006,0.0006156946114622971
S045,8071.0,8100.984375,N1,0.7461614583333334,88.86598052337115,-166.43,159.33,325.76,7.515,30.403362656771467,765.625,775.4069010416666,0.22858828527872263,0.1064285672672312,0.4015540557910257,64.99612177621329,0.11631445160697976,65.46754921333164,0.014583333333333334,8,2.1956434000000002,0.003012346154854518,2.559965972213066e-07,36.62800000000001,0.007916228058025858,-7.569446497789132e-06,81.05133333333333,0.3975737527665633,1.1599999999999966,-0.0006722918490375007
S045,8101.0,8130.984375,W,-0.5099322916666663,98.816150453578,-372.92,539.68,912.5999999999999,0.265,26.731881031342514,750.0,756.6731770833334,11.538219814731194,15.115480819896755,7.3218920424708,65.18709255570668,3.280663926767826,88.01136290275251,0.071875,31,2.0565067750000003,0.07803618915899027,-5.2885113955380335e-05,36.61533333333334,0.01543444920372038,-1.4305559436186533e-05,79.27033333333334,0.7340911992994398,2.469999999999999,-0.0013055211874786216
S045,8131.0,8160.984375,W,0.3959322916666664,70.92091273960264,-185.73,131.57,317.29999999999995,9.5,20.292451533935825,781.25,783.3170572916666,0.5292445808781503,0.5050740801000274,0.3781752147557473,64.98687251546632,0.4084327670448579,66.40030120413611,0.22708333333333333,127,2.0727408416666666,0.009129220670458725,1.5591306529759834e-05,36.60133333333335,0.016069294390924645,7.013890791528225e-06,76.931,0.2654223050159876,1.019999999999996,-0.0004063542768973186
S045,8161.0,8190.984375,W,-0.738703125,81.56364704452304,-585.01,278.38,863.39,7.09,23.440199802456316,765.625,765.6494140625,5.093142431386432,12.196868728113513,14.01024051159395,64.98951111175526,2.6358718586151153,89.38120607823548,0.03958333333333333,21,2.076455175,0.03257162901786934,-2.879724240376586e-05,36.61333333333334,0.011642832797715717,4.791667966489627e-06,77.03066666666668,0.28221662286658966,0.730000000000004,0.0004845140203217304
S045,8191.0,8220.984375,W,0.37728645833333363,83.56740474125527,-401.51,191.26,592.77,3.63,15.469071869760658,765.625,767.7978515625,4.273408649354167,3.6147843063725418,4.523660310430777,65.01361385109314,2.194883600774763,96.95875411740809,0.023958333333333335,8,2.09735335,0.005207425220538447,7.369482901877971e-06,36.60400000000001,0.012806248474864593,-1.0208336102521104e-05,77.64266666666666,0.15362146840710486,0.46999999999999886,0.00023875006476509745
S045,8221.0,8250.984375,W,0.7945885416666667,82.85566005068615,-149.98,144.76,294.74,2.8899999999999997,17.202752021813936,750.0,757.51953125,0.18652524404666154,0.10187052648664707,0.1015291077584267,64.91532975369765,0.1206080512691292,65.79513659838392,0.03854166666666667,28,2.1116021000000003,0.005180660217578465,8.187586856441758e-06,36.59066666666668,0.014126413400277676,3.26388977427577e-06,78.11433333333333,0.16516019159860765,0.45000000000000284,0.0002912153567749984
S045,8251.0,8280.984375,W,-0.19932291666666646,82.07360862905765,-148.39,142.31,290.7,2.71,32.641137949693686,765.625,765.0065104166666,0.1496378730654628,0.03225804701500421,0.0,64.91088522529057,0.07144416808469016,65.79513659838392,0.023958333333333335,20,2.12206185,0.0028711443382096074,2.2399888888858322e-06,36.59600000000001,0.014742229591663273,-6.319446158703633e-06,78.33566666666665,0.09998944388728649,0.4399999999999977,0.00014864587365610589
S045,8281.0,8310.984375,W,0.14652083333333313,80.39460918701515,-147.95,137.09,285.03999999999996,6.29,17.957158427147355,765.625,773.33984375,0.1496378730654628,0.0,0.0,64.90995271108221,0.06549080142328073,65.33758489567853,0.022916666666666665,20,2.1270037250000002,0.0031573450343669726,4.0014565976173995e-06,36.588666666666676,0.013597385369580654,-1.5000004069011741e-05,78.42399999999999,0.22447865525850544,0.6700000000000017,-0.0003909028838169724
S045,8311.0,8340.984375,W,-0.13090104166666644,84.14672978934004,-154.22,150.05,304.27,7.845000000000001,41.905095275955496,781.25,793.4000651041666,0.14282613750835504,0.0,0.03225804701500421,64.90917720599737,0.06263205062047275,65.33758489567853,0.021875,20,2.134923325,0.0036458169230011756,4.851746324801003e-06,36.57533333333334,0.012578641509410772,-1.5277781922143748e-06,77.67000000000002,0.24713019510641226,0.8799999999999955,-0.0004434028980585121
S045,8341.0,8370.984375,N1,-0.0802760416666672,85.79162740858447,-196.28,182.39,378.66999999999996,4.59,16.552324268083154,765.625,771.3785807291666,0.33189631653658874,0.08523227047636099,0.045595976308831845,64.95074573144012,0.1534457444129604,65.79513659838392,0.121875,47,2.1443156916666672,0.0037164832409053807,5.400064615902919e-06,36.576666666666675,0.011925695880000082,-2.777778531299333e-06,76.94666666666667,0.08517954892787097,0.3100000000000023,-8.520835644758011e-05
S045,8371.0,8400.984375,N1,0.08801041666666656,84.12177298416798,-160.91,151.59,312.5,6.355,25.154145852409368,781.25,783.8460286458334,0.33071891388307384,0.0,0.05581428468591172,64.9550395723714,0.14477275870750933,65.33758489567853,0.125,63,2.154700708333334,0.004329653911103143,6.509209882055663e-06,36.57066666666667,0.012092238098146593,-3.5416676274060514e-06,77.07533333333335,0.11035498277025163,0.36000000000001364,0.00015284726368469873
S045,8401.0,8430.984375,N1,-0.21348437500000028,83.44170880080725,-154.77,154.08,308.85,4.525,34.37016674703614,765.625,778.1656901041666,0.2494438257849294,0.03225804701500421,0.13188915142607027,64.93234896443292,0.11390622359440837,65.79513659838392,0.06770833333333333,52,2.1622147416666664,0.0028099895210238206,2.8670769496193905e-06,36.559333333333335,0.014360439485692805,-1.2638892317408966e-05,77.145,0.027898626011571823,0.0800000000000125,-1.8229171611648853e-05
S045,8431.0,8460.984375,N1,-0.1360729166666667,83.38339129246414,-158.74,150.81,309.55,2.24,36.035009221320045,765.625,777.3763020833334,0.19982631347136326,0.0,0.1496378730654628,64.92115726600134,0.08900885603189984,65.33758489567853,0.06458333333333334,55,2.1708922333333334,0.0035499678889001343,3.932370424362545e-06,36.54333333333333,0.011925695879997564,-1.069444734549796e-05,77.27400000000002,0.1439814802905815,0.4000000000000057,0.0002409722875901419
S045,8461.0,8490.984375,N2,-0.5135572916666665,83.51537965088282,-157.35,145.13,302.48,5.105,15.567910485876407,781.25,785.9130859375,0.2200827456448041,0.0,0.25124473114984036,64.93111719875294,0.10215668590225144,65.46754921333164,0.051041666666666666,36,2.177701708333333,0.003098672173678679,4.073124151780632e-06,36.52966666666666,0.011967548714010208,-3.1597230793524445e-06,76.98799999999999,0.20465255108761057,0.6599999999999966,-0.0003547917629100936
S045,8491.0,8520.984375,N1,0.23552604166666652,80.83936134096402,-176.84,149.01,325.85,2.36,33.34070362625229,781.25,768.2454427083334,0.25654623798103576,0.18725678670389134,0.49705731281434967,64.95969154288083,0.190765092306282,65.79513659838392,0.075,55,2.1876705666666667,0.004414287441051186,6.54068449996865e-06,36.525333333333336,0.017650936393164774,-9.23611361656734e-06,76.55300000000001,0.16848639905543406,0.6000000000000085,-0.0001184375321282364
S045,8521.0,8550.984375,N2,0.6759999999999998,81.8034535324355,-151.36,154.6,305.96000000000004,4.5,18.27233244640807,781.25,784.0413411458334,0.1288302069478359,0.06451609403000842,0.4838527650679377,64.98367860019495,0.10028585757694022,65.79513659838392,0.0125,11,2.196625308333333,0.0028962056320751472,3.0404927952725373e-06,36.516,0.014966629547096332,-2.916667457863462e-06,77.47366666666667,0.13585490626236274,0.5600000000000023,0.00013211809139488214
S045,8551.0,8580.984375,N1,-0.4470260416666667,81.89235766871649,-210.29,238.05,448.34000000000003,-2.1100000000000003,30.221851656510328,765.625,756.1767578125,0.14064814624326435,0.14420218733893508,0.474323348454289,64.93681023242127,0.14160451443362673,66.35510530471637,0.029166666666666667,19,2.207287791666666,0.004206424875306491,6.388336585377763e-06,36.49300000000001,0.010049875621120847,-3.5763898590466825e-06,77.909,0.34471582499212505,0.8800000000000097,0.0005668404315430894
S045,8581.0,8610.984375,N2,-0.38528125,78.79918565915449,-142.14,141.56,283.7,4.915,29.716984568600097,781.25,791.6097005208334,0.12401959270615269,0.032258047015004204,0.14994211846205485,64.91043464717504,0.06499165190538955,65.79513659838392,0.0375,33,2.2162535583333334,0.0034056091324848013,4.076633267315909e-06,36.48766666666667,0.008439325934115576,7.29166864466408e-07,78.03833333333334,0.1017868142519244,0.4399999999999977,-0.00016899310139786999
S045,8611.0,8640.984375,N1,0.9367864583333333,81.74616747537914,-200.81,150.75,351.56,5.11,39.342562081769294,789.0625,780.5094401041666,0.21841243795982762,0.17073167707123232,0.3662817581983696,64.92346037442864,0.17830594492129254,66.2268827591938,0.046875,30,2.226681266666667,0.0044902491295645735,6.263618018559549e-06,36.479000000000006,0.011647603473105119,-6.006946073933287e-06,77.48533333333334,0.3388778868888052,1.1299999999999955,-0.0004663195709417247
S045,8641.0,8670.984375,N1,-0.14755729166666665,81.4286172983855,-230.31,178.72,409.03,4.470000000000001,32.574486716094185,781.25,792.5048828125,0.11557806855349137,0.07216126567549166,0.26219393532692975,64.91530247777874,0.0875835895585086,65.79513659838392,0.08333333333333333,70,2.228442316666667,0.002398496938999214,-1.2336305429770218e-06,36.47766666666667,0.011455226851627377,-4.6180568082841015e-06,76.23033333333333,0.13227454613626755,0.480000000000004,-0.00014496531710213526
S045,8671.0,8700.984375,W,0.07224999999999984,82.20274926046676,-149.9,142.98,292.88,1.665,33.63942336209028,781.25,769.3929036458334,0.213721976720536,0.17365242563971156,0.31449191552495515,64.91209480878958,0.15528747979288368,65.79513659838392,0.042708333333333334,27,2.2303421833333332,0.003219795738819794,3.263735260344832e-06,36.464000000000006,0.01280624847486474,-3.125000847710729e-06,76.27233333333334,0.17837569590302665,0.5699999999999932,-0.000136979203824654
S045,8701.0,8730.984375,N1,-0.9252239583333335,80.73403539588499,-146.31,144.43,290.74,0.745,45.28267123426631,781.25,781.1686197916666,0.2363252195069329,0.0,0.05581428468591172,64.92554848933689,0.10321510918114342,65.33758489567853,0.059375,52,2.2378348249999997,0.0033305853155826634,4.218677576681157e-06,36.460666666666675,0.011234866364233556,-6.80555740168012e-06,77.75433333333334,0.4131237371807898,1.5,0.000465243181760843
S045,8731.0,8760.984375,W,0.7234166666666666,78.65360621827132,-148.21,142.79,291.0,4.109999999999999,25.10278552887296,781.25,775.5859375,0.2510308607632846,0.16567085319156843,0.08507936450096987,64.90587105336697,0.12410803237258662,65.79513659838392,0.030208333333333334,18,2.24187995,0.002428918150295198,6.150674411532932e-07,36.45133333333333,0.012578641509408312,7.5000020345058216e-06,77.72533333333334,0.05613871708148782,0.19999999999998863,4.5416678986727195e-05
S045,8761.0,8790.984375,N1,-0.5009062499999999,81.64356553292312,-178.61,173.68,352.29,4.744999999999999,44.762635248609506,796.875,803.9469401041666,0.06454972243679027,0.03225804701500421,0.09090593428863095,64.89992378216532,0.03057344924044263,65.37583651472461,0.003125,3,2.242168091666666,0.002897981633815253,2.720614670305674e-06,36.43066666666667,0.014126413400280268,-9.375002543133665e-06,76.53999999999999,0.4421312022465723,1.4599999999999937,-0.0007052085246333874
S045,8791.0,8820.984375,N1,-0.1536822916666668,80.56890187282443,-148.09,139.98,288.07,5.285,25.391543119084275,796.875,792.5130208333334,0.05589199343873464,0.06441510347391796,0.04559597630883184,64.90298147698458,0.06353790100194172,65.79513659838392,0.005208333333333333,5,2.2475474083333333,0.002791365599176082,2.2553463149267814e-06,36.43266666666667,0.009977753031398735,-1.3888892656494203e-07,75.907,0.35986247373128644,1.039999999999992,-0.0005969793286076762
S045,8821.0,8850.984375,N1,0.32703645833333334,80.29130827751742,-167.05,155.41,322.46000000000004,3.2699999999999996,32.1389803154723,781.25,773.1119791666666,0.19091507983481384,0.24119926064010502,0.32755241045857414,64.91106650937306,0.2172432179505847,66.2268827591938,0.04583333333333333,17,2.2512189833333327,0.0028060120128732663,2.781729921259252e-06,36.422,0.014236104336042377,-6.25000169542153e-06,75.69700000000002,0.3902234402663864,1.269999999999996,0.0006820487961286894
S045,8851.0,8880.984375,N1,0.5989843749999999,81.17222312363441,-165.86,194.7,360.56,2.31,19.790313072094882,765.625,775.1057942708334,0.12909944487358055,0.19080137559922244,0.26702246771365307,64.9101349609164,0.16895568142058062,66.11353870426238,0.027083333333333334,10,2.257985816666667,0.0034720116958887968,4.09412567657482e-06,36.41066666666666,0.013148721948877168,-2.8472229945820753e-06,77.12599999999999,0.36031097679643304,1.0500000000000114,0.0006376390618595537
S045,8881.0,8910.984375,N1,-0.29413020833333337,80.94476467187442,-228.64,167.57,396.21,4.68,22.611581315825443,781.25,785.2701822916666,0.20634204595902297,0.2030582155168534,0.25438643162956276,64.9107518267076,0.1896416574542621,66.2268827591938,0.03854166666666667,15,2.262895475,0.0027351150736380433,1.744918225075531e-06,36.411333333333324,0.011469767022723973,2.222222825039659e-06,77.44533333333335,0.09769794720918633,0.37000000000000455,-0.00013847225978522558
S045,8911.0,8940.984375,N2,0.29166145833333335,82.30647341073771,-165.22,149.54,314.76,5.87,21.46658729396386,796.875,796.8424479166666,0.1117839868774693,0.09090593428863095,0.12801909579781015,64.90463389893993,0.09660112788912294,65.79513659838392,0.011458333333333333,10,2.267751991666666,0.002911284108132287,2.7297461831993156e-06,36.39866666666665,0.013349989596332776,-1.3680559266643895e-05,76.64666666666668,0.3577273946581233,1.019999999999996,-0.0006347223944016902
S045,8941.0,8970.984375,N1,-0.668182291666667,80.07886055111354,-191.58,187.34,378.92,-1.7349999999999999,35.84772866917839,765.625,756.8115234375,0.3061224224064615,0.2922315957516496,0.4096015594452736,64.91217802635452,0.3006557414316936,67.12674578735364,0.057291666666666664,31,2.276333275,0.005555543060707506,8.937400644911237e-06,36.39533333333332,0.011469767022722267,-3.194445310992904e-06,76.77666666666667,0.5224004424023989,1.4000000000000057,0.0009213196943684059
S045,8971.0,9000.984375,N1,0.6364635416666663,82.45234966358173,-163.94,153.76,317.7,6.300000000000001,40.29264212331258,812.5,804.4921875,0.36110844016106236,0.40043379255779876,0.36382510440762916,64.91276767163178,0.3767866886647422,68.65857557508748,0.04479166666666667,20,2.2883192999999995,0.003765646417726063,4.531724319586606e-06,36.38666666666666,0.012736648783028787,-8.12500220404824e-06,77.41033333333333,0.11898132439822438,0.4200000000000017,7.881946582558972e-06
S045,9001.0,9030.984375,N2,-0.09005729166666683,80.29399678776096,-148.12,143.14,291.26,4.5,22.31838823230209,796.875,791.6015625,0.14002960376490234,0.15777038079295982,0.1766661753137821,64.9045838442914,0.1450436693388319,65.79513659838392,0.019791666666666666,5,2.2908382499999997,0.0028886056303171798,1.939519189322701e-06,36.37166666666666,0.014395215254458733,7.81250211927745e-06,76.36666666666666,0.6163404542584845,1.7900000000000063,-0.0010963891863034897
S045,9031.0,9060.984375,N1,-0.0341562500000002,78.16192434763609,-144.33,141.22,285.55,1.1749999999999998,35.66588344337913,765.625,770.4508463541666,0.22351943427809587,0.23412950105420044,0.318550795596244,64.91662638342554,0.1891709845759216,66.48308055437865,0.03958333333333333,16,2.2990778833333336,0.003880755848163528,5.0353320950878915e-06,36.373999999999995,0.012806248474865814,-4.375001186794822e-06,75.56733333333334,0.2836186798424172,1.1000000000000085,0.0003450000935872621
S045,9061.0,9090.984375,N1,-0.4251197916666667,81.53153114034973,-149.89,149.23,299.12,4.51,35.20939988998142,796.875,796.1995442708334,0.10703853634971328,0.1823839052353274,0.2597992681325762,64.91287637511644,0.15391244972925353,65.92419889539804,0.028125,11,2.3036033583333335,0.0023592308414531796,-5.729971172412144e-08,36.35566666666667,0.01782943882708649,-7.187501949733701e-06,76.78766666666667,0.1130982856732241,0.4000000000000057,-7.579863167280466e-05
S045,9091.0,9120.984375,W,0.7307135416666668,123.67571050584782,-611.17,604.71,1215.88,2.67,27.447024095030358,781.25,782.2265625,15.367814490753792,40.80606432955411,18.78828025196529,65.52619985554985,7.10526852581036,130.1191761424887,0.0625,31,2.2890556833333333,0.02967775526214413,-3.6555047676608035e-05,36.34733333333334,0.01651934892448386,-2.083333898466006e-07,76.64966666666666,0.11499227027162284,0.47999999999998977,1.3923614888132588e-05
S045,9121.0,9150.984375,W,-0.8247708333333337,82.5274059205081,-336.51,252.8,589.31,1.4649999999999999,96.78219961504486,781.25,844.0104166666666,1.1067731617622567,1.025709019681291,0.9755423838605544,64.07962914060704,0.5449426901955596,67.21606950722423,0.0375,19,2.2672289166666664,0.014345406767547215,2.5345078923903822e-05,36.327666666666666,0.010546194679704092,-7.187501949736142e-06,76.67766666666667,0.6564839847416095,1.9699999999999989,0.0008317016145023905
S045,9151.0,9180.984375,W,-0.14353645833333376,77.22093434549585,-145.68,147.18,292.86,7.12,26.16482413541284,828.125,837.6139322916666,0.3464461813864056,0.032258047015004204,0.4995212551783959,64.07843990919443,0.36285507266275563,64.8382603097893,0.41041666666666665,213,2.304361241666667,0.008402231694611285,1.4574860507503376e-05,36.33266666666666,0.004422166387142795,-2.083333898474888e-06,74.35100000000001,0.8489811540900062,2.9599999999999937,-0.001513715688399437
S045,9181.0,9210.984375,W,0.534989583333333,86.78071714936577,-499.47,303.52,802.99,10.28,9.371382403878428,843.75,839.1927083333334,21.374532742415614,14.602187811724956,7.403016977777633,64.34462130074822,5.759676755683888,117.45637488020819,0.075,38,2.326358941666667,0.040610448640363436,1.123550022664391e-05,36.335666666666675,0.012023125864581026,6.909724096605862e-06,71.93033333333332,0.9214607364879365,2.5500000000000114,-0.0012269100550428773
S045,9211.0,9240.984375,W,0.23724479166666684,67.38215544998475,-172.77,184.42,357.19,3.87,13.173942643970115,843.75,833.0159505208334,1.5793246952591968,0.37475541792466316,0.5397713234298597,63.87865882851191,0.4498476822719198,68.53466276272175,0.08020833333333334,51,2.3369719499999997,0.0063932272573533795,8.595549640719769e-06,36.34066666666668,0.013148721948876627,9.722224859549493e-07,74.577,0.717677504175796,2.5200000000000102,0.0011354516968998746
S045,9241.0,9270.984375,W,-0.1337083333333333,62.2404608286678,-111.79,109.25,221.04000000000002,2.05,33.777816949335055,812.5,793.5628255208334,0.3925024327596228,0.03225804701500421,0.48765577995367004,63.77153326576114,0.38308389062370546,64.83054835492293,0.3885416666666667,210,2.3603676250000003,0.006351720522900975,1.0374890618188608e-05,36.364000000000004,0.017999999999998576,2.2152783787102885e-05,75.21533333333333,0.0793193264945901,0.23000000000000398,0.00011125003017849887
S045,9271.0,9300.984375,W,-0.2761927083333334,63.63733984981444,-141.93,143.47,285.4,1.73,27.88159573026689,796.875,793.7174479166666,0.3762940634958546,0.08507936450096985,0.45780153807505813,63.703279805757305,0.36293983348252096,64.83054835492293,0.30520833333333336,202,2.377370225,0.005456102383971068,8.940427121426583e-06,36.37766666666666,0.013085190950927451,1.0173613870881684e-05,75.26199999999999,0.19355274905478992,0.6400000000000006,0.00026069451516235587
S045,9301.0,9330.984375,W,-0.03636979166666692,62.05537265887624,-108.79,109.1,217.89,1.6749999999999998,12.463282594008716,796.875,796.1263020833334,0.4212250652033371,0.12401959270615269,0.3877897102489956,63.63060600044882,0.31645960613348084,64.83054835492293,0.19791666666666666,145,2.3926434916666666,0.004248133603901507,6.300335259422551e-06,36.379999999999995,0.010000000000001563,-1.0416669492370737e-06,76.08866666666667,0.18736298697685352,0.6199999999999903,0.00025236117956846263
S045,9331.0,9360.984375,W,0.38635416666666667,62.11463708706587,-108.89,112.39,221.28,-0.32999999999999996,23.712489080663964,781.25,779.2317708333334,0.4451111264960196,0.1356408400888169,0.36110844016106236,63.620312861188296,0.29678799030149855,64.83054835492293,0.17083333333333334,137,2.407938225,0.004820647137509133,7.584622500168855e-06,36.38999999999999,0.012649110640673249,-1.2500003390836004e-06,76.10266666666666,0.20786106470963275,0.5300000000000011,0.00033145842324718407
S045,9361.0,9390.984375,W,-0.06842187500000009,61.94792038696649,-111.91,114.62,226.53,1.0150000000000001,12.628401794227884,796.875,790.5680338541666,0.47433707394870805,0.12801909579781012,0.3621031712056969,63.63199949996706,0.30085650432192296,64.83054835492293,0.17083333333333334,126,2.427694541666667,0.006179043818822611,1.0423342454248625e-05,36.39199999999999,0.009451631252504438,-2.291667288320551e-06,76.37333333333332,0.05236623169775044,0.18000000000000682,1.2083336611148675e-05
S045,9391.0,9420.984375,W,-0.23153125000000022,62.239188598879885,-104.9,111.82,216.72,-2.88,21.112339635149237,765.625,760.7666015625,0.4614242368893174,0.1356408400888169,0.31340840191176894,63.59330403007654,0.2661751395585697,64.83054835492293,0.12708333333333333,101,2.446831675,0.006539060455145037,1.1052857381959995e-05,36.39133333333333,0.011469767022722982,3.333334237558192e-06,76.48766666666667,0.30575244161830556,1.0600000000000023,0.00035864593062226647
S045,9421.0,9450.984375,W,0.3050208333333336,63.09606487993447,-108.58,109.96,218.54,0.33999999999999997,12.483392385284546,796.875,795.2229817708334,0.4944999139843763,0.11557806855349137,0.3318963165365888,63.624265951850326,0.27323449310332604,64.38167441127949,0.13958333333333334,110,2.4624573083333336,0.004378400291574978,6.3900184434728755e-06,36.38533333333333,0.012310790208413426,-4.513890113359938e-06,77.42433333333335,0.04447346274902539,0.1700000000000017,-1.7708338137023688e-06
S045,9451.0,9480.984375,N1,-0.6639479166666665,64.21097162736771,-108.6,115.53,224.13,-1.9049999999999998,31.320440587124686,796.875,799.4547526041666,0.47356783363690946,0.09636964965693294,0.30815732589052625,63.59094309822161,0.2607633897024308,64.38167441127949,0.115625,96,2.473707091666667,0.0039000780355351616,5.394536836625628e-06,36.38466666666667,0.010241527663825826,-3.333334237559105e-06,76.63966666666667,0.5428841701709696,1.7999999999999972,-0.0009369794208386016
S045,9481.0,9510.984375,W,0.6293593749999999,63.97526869208926,-114.94,115.8,230.74,-0.37,25.013727816549643,796.875,783.3414713541666,0.4628084088085359,0.1899835519196333,0.2914805954090255,63.588679572078824,0.2614802978301222,64.38167441127949,0.13125,111,2.4880091333333336,0.006033212375306792,9.897301729953731e-06,36.370999999999995,0.012999999999999491,-5.208334746187964e-07,75.27033333333334,0.06988005596894024,0.2600000000000051,3.767362133073483e-05
S045,9511.0,9540.984375,W,-0.28698437499999996,64.32860056414583,-109.6,116.96,226.56,-2.615,22.59180249405867,812.5,802.6041666666666,0.43105244065800413,0.15612494995995993,0.28256636388643286,63.568401435455506,0.24791922228831653,64.83054835492293,0.11145833333333334,97,2.5024499666666666,0.004046165769246481,5.699916042728925e-06,36.36333333333334,0.0179505493571132,1.7361115820604581e-06,75.90033333333332,0.15638591866135415,0.6200000000000045,1.184028098965794e-05
S045,9541.0,9570.984375,W,-0.3423593749999999,62.46234210344608,-104.81,111.01,215.82,-0.6599999999999999,10.47842157848445,812.5,806.591796875,0.4441447285858018,0.19249988726547926,0.27794938275700487,63.578767765860796,0.25347131607965256,64.83054835492293,0.121875,105,2.5186948333333334,0.0048739997919801095,7.548228610088059e-06,36.34500000000002,0.011180339887496725,2.1875005933970778e-06,75.55966666666667,0.1675606026354511,0.6199999999999903,-0.00029739591400713825
S045,9571.0,9600.984375,W,0.6535416666666669,61.988450157051545,-107.89,115.07,222.95999999999998,-0.49,33.20669915403513,796.875,801.3020833333334,0.4627521366029071,0.23437268517375393,0.27638539919628335,63.59659077597673,0.2615976674581148,64.83054835492293,0.140625,114,2.5284608583333332,0.004011481401959116,4.9674729186938e-06,36.342000000000006,0.01326649916142089,-4.7916679664908355e-06,74.76666666666667,0.15763530343450735,0.5900000000000034,5.3611125654059754e-05
S045,9601.0,9630.984375,N1,-0.05697916666666671,61.89243755415841,-106.55,110.5,217.05,0.9,14.79483234754724,828.125,828.4016927083334,0.4724977494802371,0.17399263633843817,0.26836818808308854,63.582910304427635,0.24785860037157392,64.83054835492293,0.10833333333333334,90,2.5409591333333332,0.005238303386169598,8.259141997380132e-06,36.333,0.00781024967590786,2.3263895199628356e-06,74.51533333333333,0.3030152178063383,0.9200000000000017,-0.0005421529248461725
S045,9631.0,9660.984375,N1,-0.20052083333333304,61.8894846626797,-105.28,110.29,215.57,-0.525,33.04226874516105,796.875,807.5358072916666,0.4732137007708275,0.20453835214941965,0.21794494717703367,63.56986619659302,0.22873583146266133,65.00769185258002,0.09166666666666666,77,2.5535321083333336,0.0036094415214264325,4.974488111569035e-06,36.324333333333335,0.01520599297060968,-8.506946752101871e-06,73.54766666666666,0.22100804409694164,0.6800000000000068,-0.00039086816158533084
S045,9661.0,9690.984375,N1,-0.050364583333333476,62.44442342055383,-110.26,114.65,224.91000000000003,0.265,17.81062891541366,812.5,810.4736328125,0.40485202843823764,0.23239907830544904,0.23825719937822562,63.56006856725047,0.2436193610660232,65.00769185258002,0.11458333333333333,88,2.566073475,0.005477027387130239,8.726533400209753e-06,36.32333333333333,0.01164283279771436,-4.652779039925054e-06,73.665,0.27421098932513027,0.8400000000000034,0.00048399318684711005
S045,9691.0,9720.984375,N1,0.2872135416666664,62.14292192193788,-105.44,113.15,218.59,0.47500000000000003,16.068995592682164,812.5,815.1041666666666,0.3675637109362433,0.24578919095210208,0.2617030727062426,63.56707874740978,0.25706585525682335,64.83054835492293,0.1375,105,2.5821792249999995,0.004548708878100288,6.770564553647079e-06,36.31133333333334,0.013597385369580283,-4.444445650077738e-06,74.13766666666668,0.07228108712212263,0.23000000000000398,-0.00012371531133770794
S045,9721.0,9750.984375,W,-0.39851041666666653,63.56009321705175,-109.26,122.38,231.64,-0.745,34.36379972691686,828.125,822.2412109375,0.3762940634958546,0.28558389261690204,0.18998355191963326,63.556938198222376,0.24363264835229143,65.00769185258002,0.12395833333333334,92,2.5905684,0.003128603262373351,2.8770641485091167e-06,36.30933333333334,0.014126413400277843,3.5416676274054847e-06,73.61333333333333,0.2527097588583055,0.6600000000000108,-0.00043173622822706035
S045,9751.0,9780.984375,N1,0.12341666666666656,64.94123202536446,-125.09,129.24,254.33,-1.32,34.18417377396618,812.5,814.9983723958334,0.4588964343945156,0.4126880358461529,0.2468464294297615,63.63618881211044,0.33080478044279266,65.00769185258002,0.23020833333333332,143,2.600526608333333,0.0049494681975202305,7.760436783972694e-06,36.29666666666667,0.016599866130651383,-1.8333338306570355e-05,73.67933333333333,0.18348357480227456,0.5,0.00023465284143143295
S045,9781.0,9810.984375,N2,-0.10502604166666689,63.25896472206651,-112.23,120.45,232.68,2.425,20.447036058297936,828.125,831.93359375,0.531490958426283,0.4568809849129202,0.11149240133549711,63.73355119380327,0.3130397634858715,65.00769185258002,0.3,151,2.6086597333333335,0.00398191026128023,5.10264591543123e-06,36.29533333333334,0.01146976702272425,2.3611117516031956e-06,73.14866666666667,0.13664390054281764,0.5899999999999892,-0.00022138894894448483
S045,9811.0,9840.984375,N1,-0.31607291666666654,61.7747955935079,-108.51,112.95,221.46,1.525,20.428857342767266,828.125,832.373046875,0.48800610303276143,0.42914138275035757,0.1114924013354971,63.722933682808815,0.2908571064114465,65.19969325081216,0.24166666666666667,158,2.6201334166666665,0.004341708595286972,6.537505245633973e-06,36.29200000000001,0.014922019523733197,-4.930556893055014e-06,72.22066666666666,0.37148291421753854,1.0300000000000011,-0.0005902084934376329
S045,9841.0,9870.984375,N1,0.7368437499999998,63.509291412068876,-112.31,121.17,233.48000000000002,-2.415,44.325909481769315,812.5,802.6611328125,0.5223976507944456,0.30412207150254644,0.30686587732536613,63.69836402431213,0.2934773578188157,64.83054835492293,0.19375,114,2.630518516666667,0.004508341720232493,6.9560227202752554e-06,36.282000000000004,0.012220201853214227,-8.472224520458673e-06,73.31,0.7663724072973049,2.0800000000000125,0.0013164586904456078
S045,9871.0,9900.984375,N1,-0.027015624999999942,63.670780980987836,-132.07,115.55,247.62,1.85,30.129920652571812,843.75,834.66796875,0.5085968835242264,0.1629667442217038,0.3095625834230544,63.668690644364595,0.26004480165590804,64.73020933072904,0.12604166666666666,90,2.638715541666667,0.0032146453793428296,-2.6090501869201776e-08,36.272,0.013012814197294838,-9.513891469696684e-06,73.71966666666667,0.09053483062090452,0.3500000000000085,-8.225696675807623e-05
S045,9901.0,9930.984375,N1,-0.11994270833333326,63.66336809283499,-121.13,120.9,242.03,0.625,20.975966157966898,828.125,831.103515625,0.40893742517447984,0.23488139737606578,0.19577791769133607,63.65431958904119,0.2224244955215894,65.00769185258002,0.08854166666666667,54,2.6447779,0.004965275867461955,7.963272993509393e-06,36.26533333333334,0.017650936393165742,8.819446836873004e-06,72.76333333333334,0.6853239298965769,1.8100000000000023,-0.0012145142183469554
S045,9931.0,9960.984375,N1,-0.5912343749999998,62.59109679588411,-114.79,120.53,235.32,-3.055,45.64641275854979,812.5,805.3955078125,0.42417070847779625,0.26391607133392486,0.21448217680419662,63.67560781982965,0.24641180014372088,65.19969325081216,0.10625,70,2.6566040416666663,0.004333660689678396,5.944676742805064e-06,36.27066666666666,0.009637888196533578,-1.875000508626388e-06,72.315,0.3338238058217743,1.1099999999999994,0.0005552432061749161
S045,9961.0,9990.984375,W,0.6484583333333332,68.50683453828967,-212.39,245.48,457.87,0.215,14.147232413453148,828.125,823.4212239583334,0.7158789275351586,0.3747163278920321,0.4531860591044992,63.70121572893562,0.3548915171418912,65.37583651472461,0.23541666666666666,137,2.668984958333333,0.0043368765246350645,6.599675184373688e-06,36.26266666666667,0.012092238098145521,4.861112429770543e-07,73.29566666666666,0.09881576572367061,0.3499999999999943,2.295139511485357e-05
S045,9991.0,10020.984375,N1,0.05742187500000024,63.665317782960564,-108.39,119.59,227.98000000000002,-0.24,33.3482142849037,828.125,829.5979817708334,0.49554328876664927,0.05589199343873463,0.42425895361467886,63.73479927000266,0.33283431183710716,64.57553716385176,0.23645833333333333,158,2.6758798333333336,0.0033356541945404852,3.7566880850390802e-06,36.25866666666668,0.01334998959633539,-5.347223672749745e-06,73.47866666666665,0.4565576512214962,1.4300000000000068,-0.0006132640552474106
S045,10021.0,10050.984375,N1,-0.6323593750000001,62.42297389505004,-106.28,110.94,217.22,-0.74,35.46450506903581,812.5,823.046875,0.47387361880275863,0.12011279421166313,0.3978621254069471,63.725466353295,0.3343845915527839,65.19969325081216,0.203125,148,2.6874283,0.005252162263614231,8.639864756907762e-06,36.257999999999996,0.012220201853216863,3.61111209068909e-06,72.55733333333335,0.10115774260475092,0.2600000000000051,0.0001612500437418754
S045,10051.0,10080.984375,N2,0.5029062499999999,64.97110861833418,-119.78,149.62,269.4,-1.08,32.74179642055216,812.5,814.4612630208334,0.3860847250676405,0.09090593428863096,0.3283415290855274,63.69519648943886,0.2583328055908707,64.57553716385176,0.13229166666666667,97,2.6975358999999997,0.003936101307978065,4.584253413697182e-06,36.25666666666666,0.009428090415822108,-2.2222228250390908e-06,72.80566666666665,0.30218849893549754,0.769999999999996,0.0004724654059422246
S045,10081.0,10110.984375,N2,0.1823125,64.33100369432309,-119.01,119.79,238.8,0.32,22.76988416707907,828.125,818.7744140625,0.7502712183215258,0.17554478694117412,0.432700609785026,63.75464321092477,0.3254008518000983,64.91532946846992,0.2375,147,2.7069176833333333,0.005702137289331917,9.39300081190351e-06,36.256,0.011718930554166463,7.430557571224461e-06,73.40766666666667,0.13686205545081498,0.36999999999999034,0.00022954867338017285
S045,10111.0,10140.984375,N2,-0.10623958333333317,62.87948580026001,-108.29,112.8,221.09,-0.275,19.111495223300572,812.5,815.2750651041666,0.44193068956002596,0.04559597630883184,0.4888058986931542,63.78988701970125,0.376803238333465,64.38167441127949,0.3958333333333333,224,2.71695055,0.004109140743208959,5.288852129137362e-06,36.25266666666666,0.012364824660662872,-2.5000006781689775e-06,73.41933333333333,0.06366230351541766,0.25,-8.097224418735238e-05
S045,10141.0,10170.984375,N1,0.34647916666666634,64.21020875640596,-162.16,128.2,290.36,-0.815,41.107894210279575,812.5,806.2174479166666,0.7555344123624608,0.195320138739512,0.48906333200142216,63.80700228084418,0.3747242528572094,65.19969325081216,0.34375,174,2.723098358333333,0.004729672039010425,-4.027463549116675e-06,36.24733333333334,0.013399834161496614,-1.000000271267591e-05,73.66266666666667,0.2983949657007569,0.8300000000000125,0.00042826400506293567
S045,10171.0,10200.984375,N2,-0.9016666666666666,67.70535790539196,-133.28,125.79,259.07,0.009999999999999995,34.984873575922265,828.125,816.6666666666666,0.4981726590890842,0.09677414104501264,0.3495470779769475,63.79505017724993,0.28851264934442544,65.00769185258002,0.13958333333333334,100,2.7220737083333333,0.0031787760679120986,3.4025658101578625e-06,36.23533333333333,0.013597385369581121,-2.7777785312991107e-06,73.758,0.19760904162849877,0.6200000000000045,-0.0003434028709317702
S045,10201.0,10230.984375,N2,0.13091145833333329,66.32998497452964,-117.75,126.17,243.92000000000002,1.15,35.00196629253714,828.125,833.6507161458334,0.48653639630613,0.0,0.29720193985833193,63.77177529419714,0.2484300567448216,64.57553716385176,0.09791666666666667,80,2.7276665416666663,0.0035341789425924453,5.12596037488072e-06,36.24333333333334,0.009428090415822108,-2.7777785312988693e-07,73.23333333333335,0.5106096573922408,1.3499999999999943,-0.0008619446782619022
S045,10231.0,10260.984375,N2,0.5432708333333337,64.45125471310327,-112.66,122.11,234.76999999999998,2.66,24.156649420779306,828.125,826.6194661458334,0.49649815373943407,0.0,0.3,63.814821378602495,0.24543651668765773,64.57553716385176,0.1,85,2.7355539416666668,0.0029103411062846698,2.2572868536476363e-06,36.24066666666668,0.011234866364236902,-4.166667796948296e-06,72.91933333333333,0.24227991158070725,0.75,0.0002529167352747196
S045,10261.0,10290.984375,N2,-0.30331250000000004,63.79097731447354,-111.25,115.04,226.29000000000002,1.38,26.05915245474185,828.125,838.3951822916666,0.45210613421764395,0.03225804701500421,0.24206145913796356,63.81048915155135,0.20055981588357646,64.57553716385176,0.0625,56,2.743473658333334,0.004187650722652325,6.0535669633156795e-06,36.234,0.014047538337137157,6.944446328246e-06,72.32999999999998,0.1418919776919512,0.5,-0.0002470139558957124
S045,10291.0,10320.984375,N2,0.1571510416666668,64.96861858057976,-116.52,125.95,242.47,-1.005,29.987832710286504,812.5,815.8040364583334,0.5076230950195453,0.09126331714087296,0.194978186101819,63.77199661572982,0.18300084702261796,64.66065264130884,0.04479166666666667,35,2.7518415083333334,0.002997530800497418,3.207144316174193e-06,36.236,0.012806248474866739,-4.930556893055334e-06,72.11066666666667,0.03650875085358435,0.15000000000000568,3.187500864665233e-05
S045,10321.0,10350.984375,W,0.1527500000000002,65.29860950488022,-162.06,133.07,295.13,-1.79,33.164806320182365,812.5,808.59375,0.577890342767457,0.14409680388158816,0.30686587732536613,63.773940686973965,0.25022840431750276,65.54387843269576,0.09791666666666667,69,2.7582134499999995,0.0032342434041828087,3.676632507767084e-06,36.234,0.013063945294844354,3.055556384428528e-06,72.47633333333333,0.27411048056496273,0.8199999999999932,0.00046288207000923915
S045,10351.0,10380.984375,N2,-0.5671406250000002,61.07377117914633,-166.42,123.25,289.66999999999996,-1.6949999999999998,58.97975283176165,828.125,822.8108723958334,0.5870778255596857,0.2216964265737172,0.37462944654981706,63.7503875737996,0.31878810675036623,65.19969325081216,0.16770833333333332,103,2.765129725,0.0030915998635077956,3.2236161088367054e-06,36.214666666666666,0.016478942792409745,-1.0000002712673e-05,73.789,0.28417541531009755,0.980000000000004,0.0002682292394285066
S045,10381.0,10410.984375,N2,0.44045312500000006,64.23389410448294,-119.15,131.41,250.56,0.03,30.180359088156607,812.5,823.2259114583334,0.3994570968479872,0.16424014852918542,0.4667968568398415,63.895791304119754,0.3662016116488607,65.55150646628954,0.3104166666666667,186,2.770327508333333,0.003148135548743769,3.0832779631288447e-06,36.20399999999999,0.019425069712444655,4.444445650077343e-06,73.95666666666666,0.21068670790747446,0.7000000000000028,0.00010354169475415094
S045,10411.0,10440.984375,N2,0.026776041666666826,62.84479427337114,-110.44,111.0,221.44,0.295,19.73214149269604,812.5,814.697265625,0.44936176769267866,0.032258047015004204,0.46351240544347894,63.91405345160736,0.356517486825574,64.57553716385176,0.3125,197,2.780659225,0.006136135419874771,9.209846899372543e-06,36.21733333333332,0.013888444437331617,1.0277780565802835e-05,73.23800000000001,0.3025932363200917,0.9500000000000028,-0.00015305559707454394
S045,10441.0,10470.984375,N2,-0.6957656249999999,66.37644987695549,-162.59,155.92,318.51,-2.2199999999999998,20.467468622817094,796.875,800.7893880208334,0.49225666401166057,0.1406481462432643,0.448810880658237,63.881635849573804,0.3765760424952779,65.54387843269576,0.25625,181,3.0157857833333335,0.20685534793752144,0.0003289061590999781,36.22,0.00999999999999801,3.4027787008398964e-06,73.79133333333333,0.22924126058708547,0.75,0.00034583342714665527
S045,10471.0,10500.984375,N2,-0.02360416666666687,65.61373548504649,-117.77,120.19,237.95999999999998,-1.185,22.827168746277355,781.25,788.9729817708334,0.34546761536197407,0.0,0.28558389261690204,63.718927503586706,0.226721839845399,64.57553716385176,0.08958333333333333,79,3.4342965916666666,0.10164911257560622,7.936503389893503e-05,36.214999999999996,0.018752777572045857,-1.822917161164488e-05,74.921,0.462430895738308,1.4100000000000108,0.0008221877230326951
S045,10501.0,10530.984375,W,0.5998906249999997,64.7497610391224,-122.72,129.57,252.29,-0.495,38.745211199388855,796.875,801.7008463541666,0.4802343178074637,0.27321866242992987,0.2599996661322643,63.727747262562424,0.24422429370286364,64.66838485689897,0.15416666666666667,87,3.585675508333333,0.06110273876745022,1.6511299400851566e-05,36.18966666666666,0.016224124698184846,-5.173612514543554e-06,75.385,0.18377069044509464,0.5499999999999972,-0.00027288201846843154
S045,10531.0,10560.984375,W,-0.3040364583333333,64.90954112430175,-114.69,124.11,238.8,-1.135,28.54637566584293,828.125,818.7418619791666,0.38849418834134447,0.31851843440459704,0.06441510347391795,63.709693909135666,0.19607057634783107,64.57553716385176,0.11875,47,3.586155833333333,0.07266446400193761,5.280133550383449e-05,36.177,0.016155494421404872,-1.0520836187293817e-05,74.85433333333334,0.3765074884897895,1.2600000000000051,-0.0006603126791212783
S045,10561.0,10590.984375,N1,0.3913645833333332,66.62935055380058,-135.9,150.24,286.14,0.585,31.779986246064823,843.75,847.9736328125,2.169644388104496,0.2250554522717062,0.5986058745581733,63.920034992217964,0.48836624948057467,68.66585760041157,0.011458333333333333,6,3.4711087666666667,0.05393393393800316,-9.680099934922944e-05,36.17433333333333,0.01145522685162781,-2.430556214888355e-07,73.239,0.41783848554196046,1.3699999999999903,-0.0007437849239867938
S045,10591.0,10620.984375,W,0.02819791666666672,64.7542821362546,-117.66,120.9,238.56,1.4,39.57120391655038,812.5,811.5966796875,0.4008441071836892,0.13215215741081693,0.16532992583014122,64.15187214572886,0.16075405042032906,64.66838485689897,0.014583333333333334,12,3.351696391666666,0.021886143245706806,-3.8924590637096e-05,36.16599999999998,0.011135528725661103,-8.402780057177979e-06,72.59433333333332,0.21377064552666958,0.6299999999999955,-0.0002839931325936245
S045,10621.0,10650.984375,W,0.00923958333333322,65.30814871825032,-133.3,126.91,260.21000000000004,2.435,58.12059164705973,859.375,844.6451822916666,0.6241522027696628,0.2174664725116648,0.2456567162163946,64.09300374523735,0.2402170816657508,66.19667665374146,0.016666666666666666,10,3.2975188416666668,0.008749781968708178,-1.5109942683903745e-05,36.15533333333333,0.0066999170807467995,-2.0833338984740737e-06,74.06600000000002,0.5657891244388963,1.8799999999999955,0.0008163891103486075
S045,10651.0,10680.984375,W,-0.5878385416666664,93.85379766981647,-656.41,375.02,1031.4299999999998,6.105,40.58139041659812,921.875,899.6012369791666,13.698671200701568,17.153332199766773,6.003985944539029,63.857075677878115,4.050196810413203,97.93875637356236,0.08333333333333333,46,3.2215359249999995,0.029578282669655488,-2.0937548865437505e-05,36.14499999999999,0.012041594578789899,-1.274305901232901e-05,72.597,0.4602401547018696,1.7900000000000063,-0.0003985070525464007
S045,10681.0,10710.984375,W,0.33637500000000004,62.841232429971555,-111.94,104.14,216.07999999999998,4.92,33.82535833566968,828.125,832.03125,0.2991887178502707,0.07198059875565237,0.41620286686769575,63.459553372977666,0.3270484707164279,64.69157595854347,0.22708333333333333,161,3.2074365583333333,0.007062221860948833,-1.1549479912510799e-05,36.11000000000001,0.012649110640673249,-9.583335932979501e-06,71.68900000000001,0.3196075718752594,1.1799999999999926,-0.00034440981564936435
S045,10711.0,10740.984375,W,-0.18082291666666636,62.71868447139822,-114.8,105.93,220.73000000000002,4.705,13.451496099988896,843.75,836.5559895833334,0.3278702714955346,0.04559597630883185,0.4470376549358629,63.498735507989025,0.34785852457583094,64.06246951218786,0.278125,194,3.1854176416666666,0.00507561808846279,-7.787724117763721e-06,36.09866666666668,0.015216949614017098,-6.875001864962714e-06,72.56833333333334,0.3431528651911406,1.1599999999999966,0.00012440975597052763
S045,10741.0,10770.984375,W,0.5189687499999999,62.416937857769746,-111.47,105.55,217.01999999999998,4.625,29.483454227361378,828.125,823.5758463541666,0.3373054351729634,0.03225804701500421,0.4311933839647821,63.47488758576986,0.33556565261035926,64.06246951218786,0.24791666666666667,169,3.167145083333333,0.006937072729885561,-1.1673518791644592e-05,36.093333333333355,0.011642832797714428,-5.6250015258784704e-06,72.11899999999999,0.04846648326421278,0.1700000000000017,3.62152876018051e-05
S045,10771.0,10800.984375,W,-0.6170000000000002,61.73019982451863,-108.28,103.27,211.55,1.68,21.939953238461463,812.5,798.486328125,0.367895667577402,0.04559597630883185,0.39442595198239966,63.432469505689006,0.30946848493415574,64.69157595854347,0.19375,144,3.1441227166666668,0.006691686511614394,-1.0526418654084924e-05,36.08866666666668,0.008844332774281306,-5.000001356337659e-06,73.00033333333334,0.5792494185485969,1.75,0.0010334377803379376
S045,10801.0,10830.984375,W,-0.08371354166666656,63.236161603837814,-109.26,104.01,213.27,2.375,11.161612277764954,812.5,812.1012369791666,0.3468046099751271,0.045595976308831845,0.3992166265707825,63.438010759317926,0.3113131874203991,64.06246951218786,0.20104166666666667,159,3.1254338833333337,0.0066875025883899285,-1.1018676166090521e-05,36.08400000000001,0.013808210118139028,3.4722231641137155e-07,74.32633333333334,0.1688881944430159,0.6199999999999903,0.0003004514703915652
S045,10831.0,10860.984375,N1,0.6039479166666666,62.815128336696255,-128.73,106.76,235.49,2.7800000000000002,18.958891975639904,796.875,803.2063802083334,0.4086733278413076,0.09636964965693294,0.3817392125376811,63.423786115182665,0.30176671270268185,64.69157595854347,0.18541666666666667,142,3.1053787749999997,0.005598989372292259,-8.775416659998002e-06,36.08600000000001,0.013063945294843917,-1.111111412520039e-06,74.58500000000001,0.07636534990862605,0.21000000000000796,-0.00011559030913365839
S045,10861.0,10890.984375,N1,-0.6095000000000003,62.98499793237805,-109.93,106.46,216.39,0.33999999999999997,11.091471573900154,796.875,802.9215494791666,0.4952508833914383,0.09090593428863095,0.3745309566644658,63.411343150112636,0.29842905130366554,64.69157595854347,0.175,135,3.0948549166666672,0.0028589911582682184,-1.266855812406651e-06,36.07933333333334,0.011234866364236902,-5.694445989162671e-06,74.51766666666666,0.128858665038699,0.4200000000000017,0.00021406255806818492
S045,10891.0,10920.984375,W,0.6012760416666667,96.36469302314325,-785.34,361.62,1146.96,1.795,16.42695135121209,796.875,807.4462890625,7.48586855893137,1.30373395377363,3.3822908646441916,63.45408335337782,2.256272172392535,100.92571525632107,0.03125,17,3.070829441666667,0.02690825201085961,-4.253375003628198e-05,36.072,0.009451631252506695,5.625001525880198e-06,75.02866666666665,0.07826166934642209,0.29000000000000625,6.56944622652056e-05
S045,10921.0,10950.984375,W,-0.055614583333333495,50.04494717810968,-93.92,100.87,194.79000000000002,-1.49,20.20406717318006,796.875,798.5758463541666,0.3054766312211496,0.48543790189603264,0.49073004006502613,63.61348031063135,0.4622385050864131,64.22616289332565,0.346875,211,3.0207078666666667,0.005830824638552915,-9.183822803771412e-06,36.07933333333334,0.01436043948569375,3.611112090688843e-06,75.17133333333332,0.16099137312981054,0.46999999999999886,0.00023597228623380078
S045,10951.0,10980.984375,W,-0.32404166666666673,49.42675666894161,-86.28,85.89,172.17000000000002,-0.785,10.432012698042604,812.5,815.2425130208334,0.3027578675920559,0.41480835601783894,0.4975973086716026,63.59965315082217,0.45843294142384844,64.22616289332565,0.346875,212,3.0040574333333336,0.005534809308267908,-8.876752407973233e-06,36.10133333333335,0.01431394036905502,1.2847225707254111e-05,74.59133333333334,0.2629034465772982,0.9299999999999926,-0.00046597234862531204
S045,10981.0,11010.984375,W,0.36685937499999993,49.75284216735989,-86.07,88.05,174.12,-0.34,12.667296707646445,796.875,804.7932942708334,0.33071891388307384,0.33653249956562725,0.4706627640891086,63.5647047849694,0.4007458875087366,64.22616289332565,0.271875,187,2.9874073583333334,0.003931976694988193,-4.9754785632265876e-06,36.112,0.014000000000000361,8.125002204048041e-06,74.12166666666667,0.16407484741896095,0.46999999999999886,-0.0002558681249642261
S045,11011.0,11040.984375,W,-0.5635156249999999,49.87444527035662,-111.75,113.42,225.17000000000002,-1.63,30.151014647694392,812.5,820.01953125,0.4200694387042853,0.302757867592056,0.45210613421764395,63.55446435916643,0.3897884290787444,64.31174076325411,0.2520833333333333,164,2.9768941916666667,0.004397077463679458,-6.1737245479939475e-06,36.12133333333334,0.012310790208413696,-5.486112599314269e-06,73.88666666666667,0.15018507101424916,0.4200000000000017,-0.0002613195153318967
S045,11041.0,11070.984375,W,0.5667239583333337,47.837302614204404,-82.86,85.04,167.9,-0.455,11.252428781628259,796.875,799.9267578125,0.4993213710599839,0.2157809420003434,0.3518906647391425,63.49890280542271,0.300639608410459,64.22616289332565,0.13541666666666666,104,2.9682488,0.0032399135086191868,-3.7189923282856564e-06,36.11866666666666,0.014313940369056222,-1.180555875802362e-06,73.97533333333334,0.08357564770247718,0.3999999999999915,0.0001304167020444574
S045,11071.0,11100.984375,W,-3.711875,83.29319933489593,-404.63,329.46,734.0899999999999,-2.9450000000000003,38.28420822235516,796.875,796.044921875,20.62904842422182,25.680181925107096,10.178366730745928,64.35148677750765,6.01523270740698,97.57561170702442,0.08541666666666667,29,2.955354833333333,0.03335595896321311,-1.9581375537482592e-05,36.132666666666665,0.015260697523011828,5.6944459891615604e-06,75.01133333333334,0.5294130922278192,1.480000000000004,0.0009375002543132189
S045,11101.0,11130.984375,W,3.7063072916666675,145.44457491730077,-484.05,550.04,1034.09,2.5549999999999997,0.0,828.125,828.125,15.546221405859367,17.399965951235842,23.57007421366127,65.94417185109204,8.239864412738028,116.77756633874505,0.096875,48,2.8578711749999997,0.04463539608010338,-4.4770452031915175e-05,36.102000000000004,0.02227105745132004,-3.069445277084724e-05,75.51533333333333,0.22031391745012827,0.8499999999999943,-0.00010326391690101921
S045,11131.0,11160.984375,W,-1.3674791666666668,90.5930473854528,-449.54,299.87,749.4100000000001,3.8049999999999997,17.095607209575455,828.125,825.9684244791666,9.052482430308366,13.416514580853848,22.33962109772524,65.06243937144656,4.19558593883808,98.812954616285,0.07604166666666666,34,2.8485001333333333,0.01569277600199815,-3.0419292105927786e-06,36.05733333333333,0.015040685563572794,-1.2569447854127555e-05,76.28299999999999,0.26533186766764427,0.8599999999999994,-0.00020072922111795464
S045,11161.0,11190.984375,W,1.0862604166666665,53.84895043830644,-413.39,190.0,603.39,2.455,30.444368567878797,828.125,811.4990234375,8.7135660116217,9.355970907568272,22.80258895720049,64.79657203805662,1.9621634616598618,92.2875939658197,0.029166666666666667,9,2.8325969166666667,0.01699130801840719,-2.303818116270106e-05,36.025,0.020124611797497166,-2.5451395793020893e-05,75.68033333333332,0.28334294101357527,0.9899999999999949,-0.0001326042026378608
S045,11191.0,11220.984375,W,0.13311979166666674,63.791656787824934,-342.2,405.87,748.0699999999999,0.8200000000000001,12.727445707721346,812.5,818.5628255208334,4.689837842938235,2.918885874484285,2.453631626736626,65.00856293767212,1.8172423555277013,84.34453153583817,0.03125,14,2.822894916666667,0.0045282193310088245,-1.8835916567902744e-06,35.97166666666667,0.016749792701868143,-2.1909728165616518e-05,73.94099999999999,0.5976194441281177,2.049999999999997,-0.0009612849829874637
S045,11221.0,11250.984375,W,0.08386979166666668,58.592173206994666,-259.96,404.78,664.74,-0.615,9.041333820879123,812.5,813.2242838541666,14.97826952430448,20.372877786546397,8.896847131927629,65.5219478243061,7.011922820613763,163.74980916019413,0.06145833333333333,27,2.813278225,0.02217868826052861,-1.350216143179295e-05,35.922,0.019043809142781722,-2.430556214886222e-05,73.62366666666667,0.1596137699434354,0.6500000000000057,2.3576395284394554e-05
S045,11251.0,11280.984375,W,-0.46919270833333315,72.3189150455031,-400.8,292.97,693.77,6.325,66.68916114153201,796.875,827.7913411458334,2.1612261421470915,1.9620352311474656,1.3895813811830369,63.993232640074424,1.0475811535691288,72.84915922644544,0.034375,12,2.819308691666667,0.011241745152774577,1.9812955244399754e-05,35.89533333333332,0.01543444920371985,1.2777781243972651e-05,73.98933333333335,0.5022013761652017,1.6499999999999915,0.000735277977234695
S045,11281.0,11310.984375,W,0.6200364583333334,58.308638712357656,-108.14,99.68,207.82,8.995000000000001,12.39759032035157,843.75,842.2688802083334,0.3497751633986546,0.2068462551362458,0.4742684425044065,63.89058713896635,0.363948308801732,64.73020933072904,0.11770833333333333,86,2.8460664083333334,0.0041394670480144145,3.935814652727486e-06,35.92666666666666,0.013743685418727683,9.791669322828495e-06,72.913,0.4818793071575771,1.8199999999999932,-0.0008580905105497257
S045,11311.0,11340.984375,W,-0.04354687500000007,59.2014050823269,-107.46,98.32,205.77999999999997,5.6899999999999995,24.309149582368544,812.5,815.0390625,0.3497751633986546,0.25654623798103576,0.49960813637345375,63.809055098837625,0.3877121700928637,64.96922348312314,0.10729166666666666,84,2.8609771333333334,0.006094765335834429,9.995281357226947e-06,35.952,0.017397317800933152,1.9930560962065672e-05,71.54833333333333,0.3231313802292943,0.9799999999999898,-0.0002688542395980476
S045,11341.0,11370.984375,W,-0.09569791666666685,62.73350136301108,-169.51,111.83,281.34,6.525,32.800677354468455,843.75,836.7268880208334,0.3754496725224597,0.2795007329547137,0.49986868935473666,63.80292830921531,0.40937656153229746,64.96922348312314,0.13333333333333333,101,2.8744787333333335,0.0033974179061295085,3.8095483424339895e-06,35.96466666666667,0.013597385369579981,1.569444870183503e-05,72.63166666666666,0.1892279636370418,0.7399999999999949,0.00030635424977057163
S045,11371.0,11400.984375,W,0.05385416666666639,64.66958526521232,-113.03,108.57,221.6,4.95,11.8630322164457,828.125,823.3642578125,0.38778971024899567,0.254795584597841,0.4975973086716026,63.769411030244264,0.3936053722900545,64.96922348312314,0.109375,78,2.8851839583333336,0.004935565251984487,7.2275599033093466e-06,35.97933333333334,0.012092238098145615,2.916667457863561e-06,72.58433333333332,0.23860264504447842,0.6499999999999915,-0.0003868403827149453
S045,11401.0,11430.984375,W,0.13191145833333337,65.19205075312794,-114.45,110.15,224.60000000000002,4.1899999999999995,21.289753100658434,812.5,816.162109375,0.4216318743880733,0.24944382578492943,0.49749371855330987,63.77805522804849,0.3809041804242502,64.96922348312314,0.11145833333333334,80,2.8976718083333335,0.004373087462529279,6.343098291856121e-06,35.98800000000001,0.011661903789691206,5.763890452444378e-06,72.58566666666665,0.2567188258689933,0.7099999999999937,0.0004424653978041946
S045,11431.0,11460.984375,W,-0.24666666666666667,67.54453441706482,-121.12,111.91,233.03,3.6399999999999997,29.380504912996297,828.125,838.6393229166666,0.4568809849129202,0.1496378730654628,0.493692858859523,63.85698290632715,0.37542300725365196,64.96922348312314,0.17395833333333333,123,2.9122514833333333,0.007516176402692302,1.2038223317660378e-05,35.995333333333335,0.010241527663824747,-6.944446328232337e-08,72.81433333333332,0.09457566048173101,0.3400000000000034,-0.00016447921128450937
S045,11461.0,11490.984375,W,-0.2826406250000001,66.14684954197881,-141.14,115.45,256.59,5.045,48.56647561480162,828.125,832.5846354166666,0.42555111326373,0.22008274564480412,0.49738792532980625,63.84117308807613,0.3878815175250116,64.73020933072904,0.16875,109,2.916734191666667,0.0035339996564228955,4.774931199796854e-06,35.99433333333334,0.009195409482755532,-2.1180561301145324e-06,72.21499999999999,0.22709395999600318,0.6700000000000017,-0.0004028126092699118
S045,11491.0,11520.984375,W,-0.2234739583333332,67.35397752007941,-132.58,114.39,246.97000000000003,3.295,53.54090184161477,812.5,819.189453125,0.44055357971218684,0.20219874281810518,0.4951051638428839,63.85531195807546,0.3875260036856694,64.96922348312314,0.16666666666666666,122,2.9226258333333335,0.002239112109495415,4.894141952621013e-07,36.001666666666665,0.011855612829185732,-3.1250008477041825e-07,71.83966666666667,0.20994417247343583,0.75,0.0002458681222515521
S045,11521.0,11550.984375,W,0.704182291666667,68.37813081770383,-121.19,118.83,240.01999999999998,5.855,33.042813916551424,843.75,841.748046875,0.44755799593150186,0.1899835519196333,0.4993746088859545,63.82322520614382,0.3847175836665771,64.96922348312314,0.16666666666666666,110,2.9277704,0.0028107805748581495,2.8720697895154615e-06,36.00233333333333,0.009551032521263094,-3.2986120059171905e-06,72.705,0.13681496019563413,0.47999999999998977,-6.309029489211579e-05
S045,11551.0,11580.984375,W,0.06497916666666666,67.77097466067535,-121.74,113.61,235.35,6.255,18.927846856428644,859.375,861.3444010416666,0.4683748498798799,0.20219874281810518,0.49682586235018,63.86054386705063,0.39356745017199074,64.96922348312314,0.21458333333333332,134,2.940215333333333,0.00465869126889613,6.497716172340541e-06,36.00233333333334,0.01646882576938019,3.472223164169222e-08,72.10566666666666,0.45091524209717654,1.4399999999999977,-0.0007471877026876363
S045,11581.0,11610.984375,W,-0.18590104166666693,66.91113235432594,-125.46,117.88,243.33999999999997,5.045,36.27005873482392,859.375,856.5592447916666,0.4721359194012767,0.18998355191963326,0.49465458627432357,63.8715313568094,0.3851174748665775,64.96922348312314,0.221875,129,2.9490849999999997,0.0033923381194489633,3.767258834434325e-06,36.01033333333333,0.017026123718829413,-3.1250008477078967e-07,70.112,0.3405524922827615,1.2199999999999989,-0.0005760418229280134
S045,11611.0,11640.984375,W,0.012869791666666448,66.60450617219063,-138.84,211.46,350.3,5.26,32.48293436743913,875.0,874.2838541666666,0.424630916126647,0.3041220715025465,0.49960813637345375,63.840346586558056,0.3988809866104312,64.96922348312314,0.15729166666666666,112,2.953749025,0.0026117128015362397,6.034695647432584e-07,36.00300000000001,0.017349351572897406,-4.5486123450006185e-06,69.86433333333333,0.16614618730369823,0.5,0.00022128478224956366
S045,11641.0,11670.984375,W,0.16681250000000022,66.36636825737249,-129.85,119.77,249.62,9.715,49.4943956730394,906.25,906.7301432291666,0.43480194844894615,0.22428271082497642,0.4999609359740019,63.81437479371972,0.3960046548586457,64.96922348312314,0.16354166666666667,116,2.959448583333333,0.003880922277808335,4.267311487443421e-06,35.99666666666667,0.010110500592068283,-1.5277781922140299e-06,69.12133333333334,0.5303755482884012,1.9099999999999966,-0.0009505558134103227
S045,11671.0,11700.984375,W,-0.06953645833333327,63.774619950550964,-115.2,107.18,222.38,7.225,22.786452520460568,859.375,857.275390625,0.48880589869315433,0.15612494995995993,0.49264997011626366,63.88650774741671,0.3880543423249024,64.96922348312314,0.2520833333333333,139,2.97012185,0.00393684774841072,4.337858381580459e-06,35.99633333333333,0.015595583420386255,-1.7881949295233462e-05,67.75399999999999,0.1778876049644825,0.6299999999999955,-0.00026673618346792965
S045,11701.0,11730.984375,W,0.01802083333333305,64.32554961417922,-114.74,108.22,222.95999999999998,5.615,16.58248103969193,843.75,833.8134765625,0.4922842166878804,0.15925921720229852,0.496462092586131,63.872946233589,0.388466353388619,64.96922348312314,0.26145833333333335,161,2.976963375,0.0028444039945786184,1.667669506203769e-06,35.991333333333344,0.005617433182117354,-1.7270140623439018e-19,69.206,0.8487818722537995,2.969999999999999,0.001525833747242226
S045,11731.0,11760.984375,W,0.0070468749999999854,65.10463063470321,-116.34,108.37,224.71,5.0600000000000005,26.898283766288333,843.75,833.7972005208334,0.48789046862487484,0.1529193630552463,0.4871793817476268,63.90415732221217,0.376842501968835,64.96922348312314,0.25729166666666664,145,2.981840958333333,0.003600975468295238,4.659131689217621e-06,35.985666666666674,0.008825468196583672,-4.0625011020244035e-06,71.60466666666667,0.4007138075429347,1.2399999999999949,0.0006699307372859002
S045,11761.0,11790.984375,W,-0.35043229166666656,64.77613047040842,-114.73,110.35,225.07999999999998,4.56,12.88075438443728,843.75,839.0706380208334,0.49607837082461076,0.11987768650679834,0.4901094247858216,63.899649440876274,0.37695225133590665,64.96922348312314,0.271875,154,2.988213033333333,0.0034032201391557436,4.204988987898448e-06,35.986666666666665,0.008692269873604528,2.0138894351910595e-06,71.78266666666667,0.06702901527614007,0.23000000000000398,-8.937502424452775e-05
S045,11791.0,11820.984375,W,-0.11318750000000029,64.92533348927836,-116.76,111.86,228.62,4.6850000000000005,11.735350542171693,828.125,833.8297526041666,0.49989148127924293,0.07880950133074055,0.4866935994259861,63.92295463711562,0.37029780077334284,64.96922348312314,0.31875,174,2.9991211749999995,0.005287900624164683,8.609765573395556e-06,35.98533333333333,0.011756794725699467,-3.055556384428405e-06,71.551,0.1427900556761566,0.37999999999999545,-3.100695285561814e-05
S045,11821.0,11850.984375,W,0.22274479166666694,67.20320260394243,-119.57,115.87,235.44,4.1,12.5,828.125,832.421875,0.499816589624523,0.11987768650679835,0.4915254034352875,63.91288403597079,0.3798629637347694,64.73020933072904,0.3229166666666667,165,3.009004533333333,0.0034313025100617023,3.44987419972719e-06,35.98500000000001,0.009219544457294136,2.3263895199624645e-06,71.78633333333332,0.12397535597403492,0.37999999999999545,0.00015982643224458348
S045,11851.0,11880.984375,W,0.6211562500000004,76.42543059943411,-300.59,254.52,555.11,5.220000000000001,11.40791464260912,843.75,839.5833333333334,5.69903582473362,11.349094767422226,5.638040439727264,64.15697207566559,4.360764544847498,110.93241185514718,0.041666666666666664,15,3.0006473916666674,0.020417786761096277,-2.9302221707416947e-05,35.98433333333334,0.01054619467970537,7.326390876300074e-06,72.11866666666668,0.07579504527928714,0.23000000000000398,-7.52777981981886e-05
S045,11881.0,11910.984375,W,-0.665369791666667,64.56135329950305,-156.3,156.98,313.28,5.34,48.57356536429881,890.625,877.8076171875,0.1986035230679456,0.03225804701500421,0.4732137007708275,64.13141359961318,0.3264680413371869,64.68384651518491,0.022916666666666665,19,2.955222016666667,0.005413749487775457,-7.89514927711298e-06,35.981,0.012476644848142756,-7.0486130231700385e-06,73.05533333333332,0.535684816120657,1.6700000000000017,0.00010833336272064
S045,11911.0,11940.984375,W,0.12672395833333314,64.08897382291123,-114.5,110.26,224.76,5.445,31.249148039330617,859.375,856.298828125,0.33767356648100244,0.032258047015004204,0.4992083576774332,64.0350092575587,0.3577793328812264,64.68384651518491,0.0625,45,2.951529083333334,0.002518278186854823,1.991155054024472e-07,35.976666666666674,0.01299572579307919,-4.027778870381995e-06,71.49499999999999,0.3170252355885887,1.0699999999999932,-0.0004664237376366485
S045,11941.0,11970.984375,W,0.006437500000000125,63.93267225432883,-129.24,115.61,244.85000000000002,7.525,78.88733287703513,890.625,874.70703125,0.4030913530316532,0.0,0.48465605645194976,63.995761011710336,0.35775578083468257,64.68384651518491,0.08020833333333334,63,2.951849241666667,0.002911021510271588,2.4806150392293588e-06,35.98133333333333,0.01117536974282789,-5.763890452444477e-06,69.10233333333333,0.9980203182077779,2.8999999999999915,-0.0016548268377893972
S045,11971.0,12000.984375,W,-0.18770833333333325,62.683619503177205,-112.44,105.3,217.74,6.3100000000000005,15.04173089997304,875.0,880.224609375,0.4618050334165803,0.0,0.47889031886226296,64.01654102112535,0.3668228781128897,64.68384651518491,0.12083333333333333,97,2.9571752666666664,0.002815752329110033,-7.675132290346369e-08,35.97733333333334,0.010934146311238934,5.486112599314985e-06,68.29199999999999,0.2500853187747468,0.7999999999999972,-0.0003709028783916241
S045,12001.0,12030.984375,W,0.19196354166666646,63.24673402675236,-115.57,111.92,227.49,6.875,29.33428149424879,875.0,870.1009114583334,0.46558538235632885,0.0,0.486198404860494,64.03810713539708,0.3637208390198708,64.68384651518491,0.11979166666666667,96,2.9613484666666663,0.0023864135780614134,-7.056989761553345e-07,35.98133333333333,0.01117536974282789,2.2916672883217352e-06,68.105,0.4974183350058583,1.25,0.000840937728118958
S045,12031.0,12060.984375,W,0.08423437499999992,62.695570493600144,-114.11,109.85,223.95999999999998,7.225,17.63161702916509,875.0,874.1129557291666,0.4888058986931544,0.0,0.4714045207910316,64.03002616579333,0.36303012889625247,64.68384651518491,0.1375,99,2.9692360166666663,0.003768311507344996,4.0223713168324415e-06,35.979000000000006,0.012741009902411648,9.270835848209649e-06,68.68966666666668,0.04490607481795239,0.1700000000000017,-1.4270837204542126e-05
S045,12061.0,12090.984375,W,0.04308333333333323,63.1458673180377,-111.35,106.05,217.39999999999998,5.535,29.705884048701567,859.375,858.2926432291666,0.49817265908908426,0.0,0.4766407608782065,64.06161599773684,0.3636927620566329,64.68384651518491,0.159375,121,2.9740495333333334,0.0034019119597988394,4.039514984677504e-06,35.976666666666674,0.01490711984999881,-1.250000339084219e-06,68.838,0.11344308411416364,0.36999999999999034,-3.895834390145953e-05
S045,12091.0,12120.984375,W,-0.008307291666666631,63.81904356834634,-114.14,116.47,230.61,3.68,32.040841132063534,843.75,834.1064453125,0.4946545862743236,0.0,0.4618050334165803,64.02392686015595,0.3554894354737089,64.68384651518491,0.13333333333333333,99,2.976579116666667,0.0032118973836434235,3.5037652733737744e-06,35.971333333333334,0.012578641509408761,8.0555577407651e-06,70.13766666666668,0.5411326598492794,1.7800000000000011,0.000931423863776005
S045,12121.0,12150.984375,W,-0.6721614583333334,63.5743629430083,-111.08,107.43,218.51,3.11,12.27562110298084,843.75,848.779296875,0.49998263858747016,0.0,0.4465142774872938,64.02723107081474,0.34329006854291366,64.68384651518491,0.134375,113,2.986878808333333,0.003886931065111712,4.651105645373692e-06,35.96666666666667,0.012736648783027984,1.3194448023661947e-06,71.19433333333333,0.1450214543514938,0.46999999999999886,0.00025774312547285487
S045,12151.0,12180.984375,W,0.5281875,66.81913139795626,-200.12,114.44,314.56,5.05,13.590943106378091,843.75,841.1946614583334,0.5247260776797948,0.3044733043397328,0.39525039312300364,64.21077678013383,0.29421413713668726,67.00746227100382,0.03958333333333333,29,2.988543925,0.0026439151340467365,-1.5923869336986443e-06,35.967333333333336,0.009977753031396268,1.1111114125196928e-06,71.05333333333334,0.1638766473770915,0.5200000000000102,-0.00017791671492966543
S045,12181.0,12210.984375,W,0.060291666666666896,65.11386300581412,-137.47,114.22,251.69,3.655,29.942775782643373,828.125,819.6858723958334,0.235840326751432,0.38445826785520193,0.11149240133549708,64.21359005318911,0.26271495510841925,64.68384651518491,0.0020833333333333333,2,2.9938272249999995,0.0032762876615220786,2.382051210408883e-06,35.95933333333333,0.01436043948569111,-9.722224859538117e-07,71.54066666666667,0.45669780915709235,1.2999999999999972,0.0008011113284264651
S045,12211.0,12240.984375,W,0.13787499999999994,66.5593932722951,-116.9,113.02,229.92000000000002,5.29,16.643378756722374,859.375,855.9814453125,0.1929053047410107,0.42809331796804406,0.0,64.18231547308964,0.28167152168666315,64.68384651518491,0.0010416666666666667,1,2.99954815,0.002750700009845976,1.8283550966675296e-06,35.957333333333345,0.013148721948876303,-3.958334407100239e-06,72.01066666666665,0.18174952238971276,0.5799999999999983,-0.0003214584205345102
S045,12241.0,12270.984375,W,-0.22704166666666675,65.45462753565707,-121.66,128.82,250.48,3.995,51.80549009090011,859.375,858.056640625,0.18998355191963326,0.4305801964275129,0.0,64.17926763965691,0.2827340987874871,64.35060217278468,0.0,0,3.001682816666667,0.0025494113503033763,8.860792334199306e-07,35.95466666666666,0.0123107902084119,-4.652779039924758e-06,71.07333333333332,0.4946064653394206,1.5,-0.0008747919039691579
S045,12271.0,12300.984375,W,0.38215625000000025,64.53862643261722,-119.37,112.53,231.9,5.81,27.17582242357381,843.75,851.5706380208334,0.2049728979374807,0.4090767042988393,0.0,64.19955377771045,0.2711913399453298,64.35060217278468,0.0,0,3.0043511250000003,0.002830171607171798,2.267439200151629e-06,35.946,0.013063945294843919,-1.1388891978324207e-05,70.00566666666667,0.08236841357920696,0.29999999999999716,-3.6458343223307114e-06
S045,12301.0,12330.984375,W,-0.836109375,64.66886996959424,-117.08,111.21,228.29,2.8049999999999997,42.07450900079379,828.125,827.24609375,0.295032660621385,0.39197129111142254,0.032258047015004204,64.19705606557612,0.26511163674993693,64.35060217278468,0.0,0,3.0126121,0.0028008832101083844,2.119669845830641e-06,35.941333333333326,0.012310790208413747,2.986111921145291e-06,70.35633333333332,0.2772061006223044,0.9099999999999966,0.00045392373424580826
S045,12331.0,12360.984375,W,0.6861510416666666,65.11214799792947,-131.99,124.05,256.04,4.915,40.1978558476207,843.75,843.9453125,0.17748422758562707,0.4268291926780808,0.0,64.18634161976475,0.2813795849987931,64.68384651518491,0.0020833333333333333,2,3.023039725,0.004103166151405727,5.906157201106026e-06,35.93866666666666,0.01117536974282789,3.263889774276534e-06,72.14933333333335,0.3677221173053851,1.3299999999999983,0.0004066667769820891
S045,12361.0,12390.984375,W,-0.36158333333333326,65.61131784269811,-119.67,115.41,235.07999999999998,4.195,12.123892227728104,843.75,850.3255208333334,0.15021685713216965,0.3877897102489956,0.0,64.2251335527001,0.2539917410059194,64.68384651518491,0.0020833333333333333,2,3.0308419166666667,0.0027698072844615073,2.6310241512110733e-06,35.936,0.010519822558707979,-1.0416669492370733e-06,71.959,0.24945741119477605,0.8599999999999994,-0.0003569098190402056
S045,12391.0,12420.984375,W,0.20839583333333297,64.33814770114344,-111.96,109.1,221.06,3.4400000000000004,28.64960154399995,843.75,845.458984375,0.11632669960790028,0.40686251900980014,0.0,64.21396622884596,0.26590943438484815,64.68384651518491,0.004166666666666667,4,3.0357303250000003,0.0032986102153343333,3.995242186209278e-06,35.943999999999996,0.01171893055416541,3.4722231641314693e-07,70.72599999999998,0.1547600292926659,0.6200000000000045,-6.13889055416962e-05
S045,12421.0,12450.984375,W,0.019718750000000302,63.44408550402262,-120.3,114.1,234.39999999999998,3.8449999999999998,45.283006884254995,828.125,835.4573567708334,0.19648605760545285,0.4336124401627436,0.03225804701500421,64.1772344321346,0.2873684791943778,64.68384651518491,0.003125,3,3.0444611333333333,0.002851212250760869,2.55611657880765e-06,35.92933333333334,0.014126413400279586,3.2638897742764374e-06,70.87899999999999,0.07290861860347493,0.28000000000000114,6.35069616718114e-05
S045,12451.0,12480.984375,W,0.0004062499999998674,64.96795717683291,-117.63,120.34,237.97,3.4699999999999998,19.335601837978096,843.75,846.1100260416666,0.1798798789007079,0.4969426928032603,0.0,64.05229907775248,0.3257420054997198,64.68384651518491,0.0010416666666666667,1,3.0537575,0.004930023958697671,7.628818475699394e-06,35.922,0.013266499161423102,-5.138890282902527e-06,71.49600000000001,0.11339018182070618,0.4299999999999926,3.215278649978261e-05
S045,12481.0,12510.984375,W,-0.6265416666666667,64.22386997852976,-115.31,109.57,224.88,4.125,15.688531778354955,843.75,850.4150390625,0.18022940628235137,0.499816589624523,0.0,64.02595493615193,0.33073581678715774,64.68384651518491,0.0010416666666666667,1,3.0600439749999997,0.0023962464900427155,5.720711187259269e-07,35.922,0.013266499161421958,1.3888892656493573e-06,71.28933333333335,0.08880440429518237,0.3200000000000074,-9.944447142048723e-05
S045,12511.0,12540.984375,W,-0.12425520833333348,63.772287122714616,-119.65,109.6,229.25,3.84,17.492919503716422,828.125,832.0393880208334,0.1595859170809115,0.4999609359740019,0.0,64.01479576229248,0.32705531435265994,64.68384651518491,0.4791666666666667,205,3.0579306666666666,0.002794627790760124,1.4298979573291472e-06,35.914666666666655,0.011175369742827509,-3.4722231641216003e-07,70.89766666666667,0.19875752955688245,0.6199999999999903,0.0002563542362072025
S045,12541.0,12570.984375,W,0.8074635416666669,64.19776949634591,-114.56,115.71,230.26999999999998,3.6500000000000004,28.193091160117568,828.125,821.9482421875,0.18356696760915953,0.4984306970103488,0.0,63.992554802368495,0.32884373066378725,64.68384651518491,0.446875,198,3.064825624999999,0.003395685269727095,3.6395511174997387e-06,35.909333333333315,0.013148721948876963,-9.930558249392376e-06,71.55433333333333,0.2664042458787441,0.8700000000000045,0.0004628820700092424
S045,12571.0,12600.984375,W,-0.2623489583333335,64.0625113215689,-113.11,114.36,227.47,2.14,27.774000440836808,843.75,828.7923177083334,0.16096699433079095,0.48902894142939585,0.0,63.95543917208504,0.31742501328652367,64.68384651518491,0.38333333333333336,202,3.0682838333333335,0.0021605336969266566,4.6243979558371666e-07,35.903333333333315,0.012995725793077733,-2.777778531305513e-07,72.74966666666667,0.20272285405339846,0.7800000000000011,0.00010572919534754752
S045,12601.0,12630.984375,W,-0.14709374999999997,63.51017758326517,-122.45,113.66,236.11,6.85,67.98141916814005,859.375,849.6337890625,0.10204080746882047,0.49851232675888324,0.0,64.00092893493965,0.3241200366149253,64.68384651518491,0.45729166666666665,204,3.0741967249999997,0.0031365979844477335,3.1746473455531995e-06,35.90733333333333,0.012364824660660214,-2.7777785312929427e-07,72.33500000000001,0.3617250336927218,1.2800000000000011,-0.0006180210009822618
S045,12631.0,12660.984375,W,0.5338697916666667,61.838332746344555,-117.91,111.92,229.82999999999998,6.825,68.33524683855083,875.0,888.5172526041666,0.15644432360711874,0.49895615865914406,0.0,63.998255833328265,0.3248722187707798,64.68384651518491,0.45208333333333334,212,3.080227133333333,0.004682692368238163,6.975861701351423e-06,35.898666666666664,0.014313940369055018,-1.034722502908558e-05,69.59266666666666,0.8505603381823583,3.0799999999999983,-0.0015168059670155063
S045,12661.0,12690.984375,W,-0.8752395833333334,64.69860189068436,-120.96,116.24,237.2,4.279999999999999,35.91982549685622,859.375,859.2203776041666,0.1462753717308556,0.49418383718061387,0.0,63.97021324366345,0.32168964373868486,64.35060217278468,0.4114583333333333,208,3.0926615583333334,0.0024071057856404677,2.7215502174383564e-08,35.89599999999999,0.01171893055416335,-2.9861119211453657e-06,68.44166666666666,0.13486000972201456,0.44999999999998863,0.00012934031286358303
S045,12691.0,12720.984375,W,0.8223177083333332,63.71104053731173,-112.87,110.73,223.60000000000002,6.210000000000001,34.49063263140601,859.375,869.3440755208334,0.13981246740425785,0.48218141288373567,0.0,63.93578909486961,0.3133786043796791,64.35060217278468,0.35833333333333334,181,3.094081116666666,0.0031050758047196634,3.6530153138604736e-06,35.89099999999999,0.017953644012659347,-4.756945734849291e-06,68.91466666666665,0.2817414102013092,1.0,0.00042659733794415716
S045,12721.0,12750.984375,W,-0.47344270833333346,62.575963733355124,-109.13,118.0,227.13,3.105,22.245193238453083,859.375,851.7740885416666,0.15723301886761007,0.4779411411199082,0.0,63.926022684844156,0.3130474353652821,64.68384651518491,0.34375,179,3.101552416666667,0.002851978753378476,2.38627625495773e-06,35.88266666666666,0.010934146311238933,1.0208336102522956e-05,69.25833333333334,0.1467897211054724,0.45000000000000284,-0.00013982642681923413
S045,12751.0,12780.984375,W,-0.2838802083333335,61.510892013937124,-111.95,105.46,217.41,4.66,49.61586790406134,859.375,855.5989583333334,0.0968189802185272,0.42555111326373,0.03225804701500421,63.85681579429272,0.27912353375972215,64.68384651518491,0.23854166666666668,162,3.1065795416666666,0.002836699695937272,2.8406220813319496e-06,35.88733333333333,0.014360439485692012,4.3055567235128934e-06,70.34199999999997,0.33262992449066486,1.0699999999999932,0.0004884723547288248
S045,12781.0,12810.984375,W,0.5943906250000002,61.42918881765678,-110.07,108.15,218.22,4.675000000000001,27.765973019951655,828.125,817.0247395833334,0.13928372696486196,0.4596087840489997,0.0,63.89255476119833,0.29893603652995715,64.35060217278468,0.29375,161,3.1126951916666665,0.0028629532197127845,1.8492320554557136e-06,35.87,0.014142135623730146,-5.069445819619464e-06,71.22599999999998,0.6152376234702587,1.5699999999999932,0.0010827780715001254
S045,12811.0,12840.984375,W,0.15103125,61.29744404659021,-107.43,105.35,212.78,5.095,16.31731217795639,828.125,835.8317057291666,0.12903218806001684,0.40385377708260806,0.0,63.83417542368758,0.26833991728904844,64.68384651518491,0.20416666666666666,147,3.117370091666667,0.0028924514228010735,-9.848802584853016e-07,35.86666666666667,0.014907119849997116,-3.7500010172525787e-06,72.08933333333334,0.35020882659096814,1.0300000000000011,0.0005283334766529628
S045,12841.0,12870.984375,W,-0.23093229166666643,61.29089140385175,-109.3,106.55,215.85,4.38,13.136278181187086,843.75,851.904296875,0.12074350109035084,0.41197356981027583,0.0,63.842284813928785,0.2703449719565758,64.68384651518491,0.21354166666666666,149,3.1206361666666664,0.0027953688138697636,2.7609026586650363e-06,35.87199999999999,0.011661903789690476,2.9548131222915196e-19,72.02566666666667,0.5281457080095315,1.4200000000000017,-0.0009369099763753197
S045,12871.0,12900.984375,W,0.11208333333333327,61.06196709280709,-107.11,103.2,210.31,4.665,14.560097393873422,828.125,835.6201171875,0.13303596396588904,0.4236075534914362,0.0,63.853448227250134,0.27700690102985265,64.68384651518491,0.23020833333333332,156,3.1239875833333324,0.002374106311096569,2.316176843580918e-07,35.87333333333333,0.01349897115421077,-1.388889265648619e-06,70.99066666666667,0.10804114442604201,0.4200000000000017,-0.00017090282413813527
S045,12901.0,12930.984375,W,-0.037552083333333285,62.00741740112794,-109.62,105.53,215.15,3.2649999999999997,17.834841676306432,812.5,821.0693359375,0.11636400473179936,0.4261919050504779,0.0,63.85679288544852,0.2806285533021563,64.68384651518491,0.23854166666666668,145,3.127851275,0.0033205829482248843,4.579234098099576e-06,35.86566666666667,0.015638272140984896,-5.65972375752036e-06,71.50333333333333,0.35273534302961845,1.1499999999999915,0.0006322223937235237
S045,12931.0,12960.984375,W,0.04076562499999999,61.41728065122146,-110.83,104.86,215.69,3.22,31.656696021454792,812.5,823.4375,0.1289480677120315,0.4287201864431962,0.0,63.85782270956551,0.2782752720424629,64.35060217278468,0.2375,160,3.13580295,0.0026798091251990035,2.7284825109815474e-06,35.87,0.014142135623730148,4.583334576642829e-06,72.573,0.1434607960384996,0.6199999999999903,0.000228645895357503
S045,12961.0,12990.984375,W,-0.05935416666666657,60.85978042376371,-106.68,112.84,219.52,3.02,11.394112688956588,812.5,819.6940104166666,0.11172573064826602,0.41197356981027583,0.03225804701500421,63.84230771330514,0.2707166532059356,64.68384651518491,0.21666666666666667,143,3.142612508333334,0.003671053184477689,4.380415467777605e-06,35.861000000000004,0.016401219466854747,-1.3506948108437233e-05,73.00466666666667,0.08632239312921962,0.30000000000001137,5.541668169940587e-05
S045,12991.0,13020.984375,W,0.01846354166666675,59.708748455905074,-114.54,124.95,239.49,4.0200000000000005,40.680047585380244,812.5,831.2662760416666,0.211794170914436,0.4992659542323665,0.03225804701500421,63.99977148255155,0.32768152401144857,65.0384501660364,0.453125,211,3.1516632916666665,0.003062042342391275,3.3354286391678837e-06,35.857333333333344,0.01631631766735818,-5.069445819618724e-06,73.43333333333334,0.3070215338086593,0.8499999999999943,0.00041673622415804614
S045,13021.0,13050.984375,W,-0.3171354166666665,62.05370206037935,-113.26,107.93,221.19,6.525,15.40430613048687,859.375,854.3212890625,0.20231944968841284,0.49851232675888324,0.0,64.04294817258555,0.3223575088593594,64.68384651518491,0.003125,3,3.1604901,0.004139186907674813,5.675932963306462e-06,35.84966666666667,0.016428295373800306,8.368057825535396e-06,72.414,0.4651136061938702,1.5100000000000051,-0.0008303474474683829
