participant_id,window_start_time,window_end_time,sleep_stage,BVP_mean,BVP_std,BVP_min,BVP_max,BVP_range,BVP_median,SDNN,median_nni,IBI_mean,x_std,y_std,z_std,mag_mean,mag_std,mag_max,movement_density,burst_count,EDA_mean,EDA_std,EDA_trend,TEMP_mean,TEMP_std,TEMP_slope,HR_mean,HR_std,HR_range,HR_trend
S046,10373.0,10402.984375,W,-1.0571302083333325,52.12281699409302,-199.56,204.55,404.11,-0.785,0.0,390.625,390.625,0.0,0.44055357971218684,0.4053662931192259,64.882004739052,0.4406938184688523,65.19969325081216,0.0,0,0.0042583249999999994,0.0008619029640133512,-6.032488615583937e-08,21.796666666666667,0.016599866130651286,-1.1111114125193504e-06,78.24,0.9332773792751368,3.049999999999997,0.001098750298055093
S046,10403.0,10432.984375,W,0.9073854166666672,64.22926855655284,-192.81,194.77,387.58000000000004,-0.665,0.0,390.625,390.625,0.0,0.4324096224614136,0.41053297844252284,64.89705965770848,0.432750255721401,65.19969325081216,0.0,0,0.004130233333333334,0.0009422211942473427,-3.872427265740903e-07,21.782,0.014236104336041446,-1.7361115820614813e-05,85.377,4.041648302363775,11.319999999999993,0.007133647768459136
S046,10433.0,10462.984375,W,-0.12905208333333357,47.46045967804625,-164.45,157.82,322.27,0.08,0.0,390.625,390.625,0.0,0.42809331796804406,0.3976370636334093,64.90311697116572,0.4269454616013475,65.19969325081216,0.0,0,0.00337235,0.0009912336392092433,-3.141064220123757e-07,21.776,0.012806248474865426,1.201389214786545e-05,91.87966666666668,0.29565163434165004,1.3499999999999943,-0.00010385419483892142
S046,10463.0,10492.984375,W,0.19881250000000042,55.286613158407015,-208.32,189.91,398.23,0.94,0.0,390.625,390.625,0.0,0.4236075534914362,0.3903123748998999,64.90973632796452,0.42338497153754334,65.19969325081216,0.0,0,0.003767308333333333,0.0011005891437152599,2.709877037184526e-07,21.776,0.015620499351812976,9.791669322826753e-06,88.61,1.3482235225164507,3.9200000000000017,-0.0022799311740264684
S046,10493.0,10522.984375,W,0.8272708333333334,72.42772194681962,-204.62,282.93,487.55,-2.94,0.0,390.625,390.625,0.0,0.4311933839647821,0.4030913530316532,64.89841718495501,0.4313605076245959,65.19969325081216,0.0,0,0.003692558333333333,0.001048307133714744,7.583610998158364e-07,21.76266666666667,0.015040685563570983,1.8750005086264003e-06,84.76466666666666,2.294106555696332,5.8500000000000085,-0.003978612190378741
S046,10523.0,10552.984375,W,-1.928281249999999,53.104124245086325,-184.25,180.74,364.99,-3.16,0.0,390.625,390.625,0.0,0.4348019484489461,0.38349181506548774,64.89045017952931,0.4345693247628338,65.19969325081216,0.0,0,0.003436391666666667,0.0009919380633876403,2.229277948480346e-07,21.758666666666667,0.013349989596333572,6.944446328245815e-08,85.57366666666667,1.8774761131784223,5.530000000000001,0.00330100783990013
S046,10553.0,10582.984375,N1,0.8670937499999998,66.13356013820601,-241.89,232.3,474.19,-0.895,0.0,390.625,390.625,0.0,0.44111108924573134,0.41758232721225164,64.88219587540922,0.4409176624173182,65.19969325081216,0.0,0,0.004247658333333334,0.0009352400359964043,3.202246962415083e-07,21.768000000000004,0.013012814197295145,2.708334068015911e-06,89.57366666666667,1.844473697893853,4.820000000000007,0.0029615633033754636
S046,10583.0,10612.984375,N2,-0.013958333333333605,44.41147513427617,-126.85,218.55,345.4,1.65,0.0,390.625,390.625,18.749061058666303,35.73475393631372,23.60935859253787,64.92483365665062,4.851904229913013,115.80155439371269,0.06458333333333334,25,0.010512566666666666,0.01581297817760954,1.0119803960450292e-05,22.889333333333333,2.4507494545319988,0.002900625786845103,91.05066666666667,0.607371019686942,2.4399999999999977,-0.00045131956687271266
S046,10613.0,10642.984375,N1,0.3364270833333333,27.926230645534673,-196.97,239.76,436.73,0.9299999999999999,0.0,390.625,390.625,11.715851678625654,4.894232783586264,17.290179529424275,62.96973949277828,3.45151414285187,94.09569596958194,0.07708333333333334,48,0.024941875000000002,0.01086334786454165,-6.645724459018139e-07,32.32066666666667,0.6091739397650633,0.0008681252354940417,96.16933333333333,2.083335359999014,7.790000000000006,0.0036783343311453803
S046,10643.0,10672.984375,N2,0.37169270833333307,64.7850723763725,-258.46,301.02,559.48,-0.365,0.0,390.625,390.625,33.408750864580334,17.84586738264321,22.086191245889363,65.85032558843157,8.402891063847438,140.53113534018004,0.08020833333333334,36,0.012209441666666666,0.012562508793227989,-1.3267439145898204e-05,31.008666666666667,2.348294037996283,-0.0032438203243870226,97.55199999999999,2.3005092189918885,8.330000000000013,-0.004005903864448748
S046,10673.0,10702.984375,N2,-0.6057552083333338,114.57892006600586,-426.07,608.3,1034.37,0.255,0.0,390.625,390.625,31.650235868877115,24.334814095927122,29.991919918815913,65.73325680985046,9.035427448120444,113.12824580978881,0.10625,44,0.004749241666666667,0.004108320149395682,-3.3049985093854467e-06,26.776666666666664,0.7899423326350404,-0.00013222225808980548,84.13466666666666,3.988969568976707,12.820000000000007,-0.007118057486452224
S046,10703.0,10732.984375,N2,0.19772395833333303,53.69225550704885,-297.98,261.5,559.48,-0.28,0.0,390.625,390.625,25.631831660473143,38.96822016925744,23.877728333601247,65.05335255562505,7.633251574976732,117.80067911519016,0.07916666666666666,27,0.020365391666666663,0.12455375730785856,5.3437735633066307e-05,25.459999999999997,1.2450836651941644,-0.0020892366778528324,78.93566666666666,0.8538683869439255,3.0,0.0014778129008824045
S046,10733.0,10762.984375,N2,-0.08729687500000015,48.11470912953957,-317.72,230.29,548.01,0.605,0.0,390.625,390.625,24.058571987291934,37.08937566351549,35.52400737285123,66.77701293422848,12.78619543030223,142.5833089811006,0.121875,57,0.05991820833333333,0.23089968912679007,-0.00015064539177663626,20.858666666666668,1.831334182744615,-0.0029197230142477787,82.41900000000001,2.5536840707756565,8.25,0.004410591474227287
S046,10763.0,10792.984375,N2,-0.31735416666666605,93.05458091994755,-308.9,346.39,655.29,-1.5750000000000002,0.0,390.625,390.625,29.228854461981953,35.56332622978398,26.156658428876778,67.24978257423871,13.954168805448594,136.90142438996023,0.121875,28,0.004087533333333333,0.0009102332478851537,9.810809953019187e-08,20.078999999999997,0.5949921568110512,0.0007873266024648987,85.21866666666665,1.6785702911174802,4.829999999999998,-0.002796389647458129
S046,10793.0,10822.984375,N2,-0.30420312500000063,41.5233377726509,-114.19,144.81,259.0,-0.45999999999999996,0.0,390.625,390.625,0.0,0.10642856726723118,0.09636964965693297,65.2717969328822,0.10618452143380656,65.28399497579785,0.0,0,0.004087541666666666,0.0009542147722589619,9.257272476473647e-08,20.64,0.08835534316987662,0.00015812504289416306,88.91733333333335,1.3252117650482216,5.069999999999993,0.0014613198408528205
S046,10823.0,10852.984375,W,0.6875885416666659,41.170076206657086,-119.11,144.26,263.37,1.095,0.0,390.625,390.625,0.0,0.11110243021644486,0.09090593428863095,65.27084768224778,0.11079789773953443,65.28399497579785,0.0,0,0.00454655,0.0011198069911819626,2.9856648724134316e-07,20.914,0.06183849933496144,0.0001080555848675092,97.02133333333335,4.840439879000897,13.75,0.00852784953554946
S046,10853.0,10882.984375,N2,-0.05654687500000032,37.48996820126923,-122.03,122.92,244.95,0.27,0.0,390.625,390.625,0.0,0.09636964965693297,0.06441510347391793,65.27431013422903,0.0960633496905729,65.28399497579785,0.0,0,0.004994899999999999,0.0010248,-1.901484890810787e-07,21.14,0.0670820393249937,0.00011812503204346578,104.64633333333335,1.8455251887260238,6.5800000000000125,0.0031939939219818585
S046,10883.0,10912.984375,N2,0.052057291666666214,39.58698899637103,-134.07,139.62,273.69,-0.865,0.0,390.625,390.625,0.0,0.07880950133074058,0.08507936450096985,65.27715788613224,0.07873992399419479,65.28399497579785,0.0,0,0.004108891666666666,0.0011563628236546503,-9.142964719771247e-07,21.291999999999998,0.03113411847689498,4.8402790907875076e-05,108.20166666666667,0.7807606689775197,2.719999999999999,-0.0010823961269520762
S046,10913.0,10942.984375,N2,-0.5420000000000001,39.59978828278842,-121.13,134.31,255.44,0.115,0.0,390.625,390.625,0.0,0.09636964965693297,0.09090593428863095,65.2739588770416,0.09618134756051121,65.28399497579785,0.0,0,0.004322375000000001,0.0009931192951377996,5.198504014351126e-08,21.391333333333332,0.02246973272846981,3.166667525680142e-05,107.98133333333335,0.7073458999826192,2.5,0.0002931945239785508
S046,10943.0,10972.984375,N2,0.6225052083333336,42.88783279800167,-123.85,152.84,276.69,1.33,0.0,390.625,390.625,0.0,0.06441510347391793,0.07198059875565237,65.2794076445885,0.06438870223169338,65.28399497579785,0.0,0,0.0040128,0.0009913391498372291,1.8347661227121655e-08,21.474,0.0320000000000006,5.2916681021235986e-05,107.31733333333335,0.48274861182837253,1.8999999999999915,-0.00013930559334461703
S046,10973.0,11002.984375,N2,0.041161458333333435,41.37216445790895,-128.03,164.4,292.43,1.13,0.0,390.625,390.625,0.0,0.07880950133074058,0.10152910775842669,65.27689444324167,0.0788575459498758,65.28399497579785,0.0,0,0.003553791666666667,0.000970799257449185,-5.768193839028276e-07,21.546,0.01890326250501003,2.416667322229582e-05,104.23266666666669,1.635954223755121,5.8500000000000085,-0.002473125670878273
S046,11003.0,11032.984375,N2,0.06189062499999961,43.93676417139319,-153.17,164.11,317.28,0.86,0.0,390.625,390.625,0.0,0.07198059875565235,0.08507936450096987,65.27819495106353,0.07197636844125509,65.28399497579785,0.0,0,0.0034577166666666668,0.0009442013749136828,8.335939761268384e-08,21.598000000000003,0.0290287214094357,4.527779006016343e-05,101.43566666666669,0.6674313114887226,3.0,-0.000665104347087767
S046,11033.0,11062.984375,N3,-0.08547916666666655,48.29502583383958,-142.67,187.08,329.75,-1.475,0.0,390.625,390.625,0.0,0.08507936450096985,0.07880950133074056,65.27620863549785,0.08491863728612616,65.28399497579785,0.0,0,0.004183608333333333,0.0009746208005837735,3.9417176491204567e-07,21.646,0.02653299832284408,3.722223231940057e-05,101.95533333333333,0.6736306274377851,2.1099999999999994,0.0008004168837936448
S046,11063.0,11092.984375,N2,0.04918229166666611,48.74535882616692,-153.26,183.34,336.6,0.385,0.0,390.625,390.625,0.0,0.09636964965693297,0.07880950133074056,65.27413450563532,0.09612252718050804,65.28399497579785,0.0,0,0.0048241,0.0009885764714982852,7.800535970197476e-07,21.711333333333336,0.019955506062793928,3.1250008477106665e-05,102.92200000000001,0.33131455345839295,1.3600000000000136,0.0003965278853428517
S046,11093.0,11122.984375,N2,0.576994791666666,49.43154936353037,-130.58,198.87,329.45000000000005,-1.5,0.0,390.625,390.625,0.0,0.05581428468591172,0.08507936450096987,65.28026908092605,0.05599454043673178,65.28399497579785,0.0,0,0.004439808333333333,0.000889525269416533,-1.6122291699840411e-07,21.732000000000003,0.017397317800932812,1.034722502908643e-05,105.79933333333334,0.7248996865467352,2.980000000000004,0.0007112501929389631
S046,11123.0,11152.984375,N3,-0.45133854166666704,47.52158034810314,-140.0,167.35,307.35,-1.49,0.0,390.625,390.625,0.0,0.09636964965693297,0.08507936450096987,65.27404669133846,0.09615198196819663,65.28399497579785,0.0,0,0.004493175,0.001071708329899045,6.646857271825431e-07,21.775333333333332,0.019275776393067538,2.1111116837867613e-05,106.51599999999999,0.7282105922510791,2.6000000000000085,0.00045854179105408836
S046,11153.0,11182.984375,N2,-0.1126718750000002,43.1586597963047,-120.53,152.03,272.56,0.21000000000000002,0.0,390.625,390.625,0.0,0.07198059875565235,0.11110243021644485,65.27775587957922,0.07219644079041121,65.28399497579785,0.0,0,0.005176366666666667,0.0010767807029391928,2.1208686308779924e-07,21.80933333333333,0.022793761329704947,3.326389791229848e-05,104.114,1.4188812494356249,4.3999999999999915,-0.002490972897941866
S046,11183.0,11212.984375,N2,-0.04209374999999973,38.55955250339459,-113.56,122.49,236.05,0.14500000000000002,0.0,390.625,390.625,0.0,0.10642856726723118,0.07198059875565238,65.27214819006964,0.10608481005400174,65.28399497579785,0.0,0,0.004994908333333333,0.0010640494270774685,-4.60910932321759e-07,21.836666666666666,0.011925695880000212,9.722224859545854e-06,101.25433333333334,0.9075229412466053,3.5,-0.0010206599990939661
S046,11213.0,11242.984375,N2,0.15465625000000008,45.16619690661187,-142.34,174.71,317.05,0.835,0.0,390.625,390.625,0.0,0.08507936450096985,0.09090593428863095,65.27603300690413,0.08498949875451028,65.28399497579785,0.0,0,0.004877475,0.001009958810731903,3.638952810045792e-07,21.854,0.01665332799572973,8.750002373590508e-06,103.90066666666667,2.11462042824606,6.11999999999999,0.003699931559226223
S046,11243.0,11272.984375,N2,-0.8469583333333335,44.3689857428861,-110.1,139.98,250.07999999999998,0.155,0.0,390.625,390.625,0.0,0.09090593428863095,0.06441510347391793,65.2753471991603,0.09063495873235988,65.28399497579785,0.0,0,0.004194274999999999,0.0009637698373444772,3.4832756844823355e-07,21.872666666666667,0.013399834161494236,2.777778531298372e-06,107.87466666666666,0.8446172045502157,2.8700000000000045,0.0010528475078253848
S046,11273.0,11302.984375,N2,0.6184687499999996,46.3985265553707,-131.51,152.45,283.96,-0.29500000000000004,0.0,390.625,390.625,0.0,0.06441510347391795,0.045595976308831845,65.27967108747909,0.06423428899273062,65.28399497579785,0.0,0,0.0043650749999999995,0.0008350415973920102,-1.1953779284336827e-08,21.88266666666667,0.015040685563570985,-3.402778700840506e-06,103.33800000000001,2.3678603562428813,8.0,-0.0041395150118042024
S046,11303.0,11332.984375,N2,-0.02725520833333377,45.290085485096725,-140.99,195.66,336.65,-0.755,0.0,390.625,390.625,0.0,0.06441510347391795,0.10152910775842669,65.27896857310421,0.06464285221264422,65.28399497579785,0.0,0,0.0046746666666666655,0.0010672334744042135,3.447145032320158e-07,21.9,0.018439088914585382,8.680557910307411e-06,102.69999999999999,0.8887256794609535,3.4000000000000057,0.001089861406754938
S046,11333.0,11362.984375,N2,0.12763020833333366,43.085431680348805,-150.84,143.88,294.72,1.345,0.0,390.625,390.625,0.0,0.09090593428863095,0.09636964965693297,65.274908127676,0.0907960542089715,65.28399497579785,0.0,0,0.004311716666666667,0.0009773959892091957,-2.2738851654419396e-07,21.922000000000004,0.016812693617224296,1.7083337967484977e-05,107.76599999999999,3.2381039719770155,10.420000000000002,0.005771807121258439
S046,11363.0,11392.984375,N2,-0.2193906249999999,44.44103481362406,-167.92,143.54,311.46,0.025,0.0,390.625,390.625,0.0,0.09090593428863095,0.10642856726723118,65.27473249908228,0.09085981833136689,65.28399497579785,0.0,0,0.005240416666666666,0.0010058684107388115,-4.923334668873335e-07,21.948,0.014922019523732611,1.701389350420252e-05,111.435,0.8510806855600325,3.0600000000000023,0.00039871538593625014
S046,11393.0,11422.984375,N2,0.07132812500000026,37.36070891988669,-135.23,113.4,248.63,0.17,0.0,390.625,390.625,0.0,0.07198059875565235,0.07880950133074056,65.27828276536039,0.07193195156621637,65.28399497579785,0.0,0,0.004898825,0.0010282967686300487,-3.461036095116127e-07,21.949999999999996,0.012649110640673249,6.111112768856414e-06,111.272,1.4015572291799823,5.420000000000002,-0.001981319981911889
S046,11423.0,11452.984375,N2,0.04377604166666688,39.01932067314336,-120.83,138.92,259.75,1.15,0.0,390.625,390.625,0.0,0.05581428468591173,0.09090593428863095,65.28018126662919,0.05605469980650222,65.28399497579785,0.0,0,0.004760041666666667,0.00102188091605491,9.00761963097321e-08,21.961999999999996,0.014236104336041444,-1.0833336272063644e-05,107.90900000000002,0.8029252767225606,2.9200000000000017,-0.0010535766746898527
S046,11453.0,11482.984375,N2,0.1333593749999996,44.298757540138936,-135.67,158.06,293.73,1.45,0.0,390.625,390.625,0.0,0.10642856726723118,0.07880950133074056,65.27206037577278,0.10610985569318737,65.28399497579785,0.0,0,0.005123,0.0010059453016938843,6.777514859351903e-07,21.96466666666667,0.012578641509408538,4.444445650077392e-06,106.882,1.2454273697543887,4.6000000000000085,-0.0018981255148994992
S046,11483.0,11512.984375,N2,-0.279182291666667,42.198422149215915,-148.01,137.71,285.72,-0.375,0.0,390.625,390.625,0.0,0.06441510347391793,0.09636964965693297,65.27905638740107,0.06459234098689934,65.28399497579785,0.0,0,0.005176375,0.000969898801099888,-2.2934576533902053e-07,21.961333333333336,0.016069294390924922,6.319446158703793e-06,106.77600000000002,1.5311729708516484,5.200000000000003,0.002248750610012641
S046,11513.0,11542.984375,N2,-0.15597916666666692,46.24864761625901,-144.17,154.02,298.19,-1.005,0.0,390.625,390.625,0.0,0.05581428468591173,0.09636964965693297,65.28009345233232,0.05611465725968489,65.28399497579785,0.0,0,0.004920183333333333,0.0010588431106899434,-7.341642616548019e-07,21.980000000000004,0.014375905768565159,-2.5694451414512078e-06,109.80366666666666,1.002658078420666,4.079999999999998,0.0007676043748926799
S046,11543.0,11572.984375,N2,0.34179687500000006,46.745459931624985,-187.66,172.42,360.08,0.5349999999999999,0.0,390.625,390.625,0.0,0.07880950133074058,0.06441510347391793,65.27742132902283,0.07862124333583878,65.28399497579785,0.0,0,0.005090983333333333,0.0010519313506065352,6.774763122494338e-07,21.985333333333337,0.016069294390925835,6.180557232139626e-06,110.15966666666667,2.704240476650617,9.230000000000004,-0.004467049822875929
S046,11573.0,11602.984375,N2,0.06505208333333386,48.24299917256341,-149.35,170.65,320.0,0.17,0.0,390.625,390.625,0.0,0.05581428468591173,0.10642856726723118,65.27991782373861,0.05623396899754773,65.28399497579785,0.0,0,0.00501625,0.001053531104191993,-6.338282969369302e-08,21.987333333333336,0.01436043948569264,-3.194445310993485e-06,105.48433333333334,0.8841443446758125,3.5999999999999943,0.0007574654832534395
S046,11603.0,11632.984375,N2,-0.0075625000000007015,46.73966550542048,-132.15,177.14,309.28999999999996,-0.825,0.0,390.625,390.625,0.0,0.09636964965693297,0.06441510347391793,65.27431013422903,0.0960633496905729,65.28399497579785,0.0,0,0.0050482750000000005,0.001009958810731903,4.864910173858007e-08,21.984,0.013808210118139028,-5.486112599314295e-06,105.11433333333335,0.8340530891709201,2.9200000000000017,0.0012901045166299147
S046,11633.0,11662.984375,N2,-0.26232291666666635,40.52904291754731,-130.94,130.86,261.8,0.385,0.0,390.625,390.625,0.0,0.09636964965693297,0.07880950133074056,65.27413450563532,0.09612252718050804,65.28399497579785,0.0,0,0.004749375,0.0010380030994052956,8.659540109467261e-07,22.004666666666665,0.014544949486182117,7.916668814201404e-06,107.35966666666667,0.7568376458806892,2.5600000000000023,-3.30902867540928e-05
S046,11663.0,11692.984375,N2,0.24012500000000023,43.223795945310904,-149.93,154.15,304.08000000000004,1.49,0.0,390.625,390.625,0.0,0.07880950133074058,0.11987768650679835,65.27654318605423,0.0790127365191831,65.28399497579785,0.0,0,0.005347166666666668,0.0009451239013425112,3.327509583200298e-07,21.992666666666665,0.014360439485692994,-4.0277788703826476e-06,110.44433333333335,3.4251838717878447,9.670000000000002,0.005587397349011871
S046,11693.0,11722.984375,N2,-0.003963541666666733,42.332689761783634,-127.94,166.67,294.61,-0.015,0.0,390.625,390.625,0.0,0.05581428468591173,0.10642856726723118,65.2799178237386,0.05623396899754773,65.28399497579785,0.0,0,0.005646033333333333,0.0009570367803218898,-6.426520840527574e-08,22.00333333333333,0.01738453974720819,1.5555559775272436e-05,114.48566666666667,0.8209534429890379,2.980000000000004,0.0009606599828179192
S046,11723.0,11752.984375,N2,0.2088489583333325,46.04238688401359,-168.36,205.2,373.56,0.27,0.0,390.625,390.625,0.0,0.07880950133074058,0.12401959270615269,65.27645401004935,0.08016778601044271,65.28399497579785,0.0,0,0.00535785,0.0009205292105631413,-1.1675784417259134e-08,22.002666666666663,0.012092238098146059,-1.3194448023670837e-06,112.88966666666667,2.113478149612362,6.420000000000002,-0.003418160649457643
S046,11753.0,11782.984375,N2,-0.8162864583333336,39.77766197240429,-116.89,123.42,240.31,-0.5700000000000001,0.0,390.625,390.625,0.0,0.08507936450096985,0.10152910775842668,65.2758573783104,0.0850599385595081,65.28399497579785,0.0,0,0.005293808333333333,0.001018521046222032,1.9626676331021142e-07,22.000666666666667,0.014360439485693256,1.9814402411713516e-19,108.689,1.135732803083542,4.1299999999999955,0.00043913206356663916
S046,11783.0,11812.984375,N3,0.6515781249999998,43.43988928511756,-139.28,144.0,283.28,1.0050000000000001,0.0,390.625,390.625,0.0,0.06441510347391793,0.08507936450096987,65.27923201599478,0.0644908411328904,65.28399497579785,0.0,0,0.005251099999999999,0.0009699575454626867,5.131785246252507e-07,22.000666666666667,0.011234866364236578,-1.3888892656492472e-06,112.61999999999999,0.938047617838952,4.3999999999999915,0.0012178475525845144
S046,11813.0,11842.984375,N3,-0.10181770833333316,35.06681325635897,-79.3,89.44,168.74,0.88,0.0,390.625,390.625,0.0,0.045595976308831845,0.09090593428863095,65.28121833156045,0.0460052222035967,65.28399497579785,0.0,0,0.00522975,0.000943998404394838,-1.4733727955112836e-07,21.998,0.014236104336043007,-2.7777785313057795e-07,113.56433333333332,1.9535995552370065,6.430000000000007,-0.0025129520705707686
S046,11843.0,11872.984375,N3,0.12909375000000053,37.681353004939695,-139.92,100.33,240.25,0.365,0.0,390.625,390.625,0.0,0.05581428468591172,0.12401959270615269,65.27956656655117,0.056470197595635103,65.28399497579785,0.0,0,0.005581991666666667,0.0009324458205514617,2.8380020719406673e-07,21.999333333333333,0.012364824660662297,4.861112429772962e-06,107.11566666666667,1.9292151829752477,6.789999999999992,-0.003201910590796057
S046,11873.0,11902.984375,N2,-0.7665937499999999,41.45571697935594,-138.51,185.57,324.08,-0.94,0.0,390.625,390.625,0.0,0.06441510347391795,0.08507936450096987,65.27923201599478,0.0644908411328904,65.28399497579785,0.0,0,0.005571308333333333,0.001041261556925327,-4.5302421143234906e-07,22.004666666666665,0.01359738536958192,6.527779548551787e-06,105.25133333333333,0.7730577095031276,3.4200000000000017,-0.000963541928044141
S046,11903.0,11932.984375,N2,0.6165937499999999,40.81747856517222,-135.69,150.66,286.35,0.69,0.0,390.625,390.625,0.0,0.11110243021644486,0.09090593428863095,65.27084768224778,0.11079789773953443,65.28399497579785,0.0,0,0.005453916666666668,0.000882782726980742,-2.1321620367193024e-07,22.019999999999996,0.015275252316519838,7.152779718093565e-06,102.57633333333334,0.6786726424098409,2.990000000000009,-0.0004118403894966337
S046,11933.0,11962.984375,N2,0.08540625000000049,45.617054220680025,-142.93,138.96,281.89,1.11,0.0,390.625,390.625,0.0,0.07198059875565235,0.10152910775842669,65.27793150817294,0.07210881327121485,65.28399497579785,0.0,0,0.004898824999999999,0.0010282967686300487,2.949525539693343e-07,22.02466666666667,0.014544949486180923,6.5277795485513536e-06,104.01066666666665,1.3514903707471329,4.849999999999994,0.0023702089762936683
S046,11963.0,11992.984375,N2,0.048463541666667,38.02920275623343,-144.42,106.3,250.71999999999997,0.445,0.0,390.625,390.625,0.0,0.08507936450096985,0.13188915142607024,65.27524267823239,0.08530317230247922,65.28399497579785,0.0,0,0.00514435,0.001032554515509956,-6.783074756693465e-08,22.032,0.013012814197295147,-3.81944548053526e-06,108.80933333333333,1.8238913222984405,6.079999999999998,0.002934306351537095
S046,11993.0,12022.984375,N2,-0.011031249999999737,37.905444247812525,-142.43,104.46,246.89,0.86,0.0,390.625,390.625,0.0,0.07198059875565235,0.05581428468591172,65.27854620825096,0.07179789165647747,65.28399497579785,0.0,0,0.005379183333333333,0.0010274278886563714,5.031694073267707e-07,22.026,0.01306394529484334,-2.9166674578632896e-06,110.20833333333334,1.0263887610885503,3.5,0.0004267015046390823
S046,12023.0,12052.984375,N2,-0.5998177083333327,39.48843701692543,-115.08,144.6,259.68,-0.915,0.0,390.625,390.625,0.0,0.06441510347391795,0.09636964965693297,65.27905638740107,0.06459234098689934,65.28399497579785,0.0,0,0.005443249999999999,0.0009391573550263023,-8.061851145250423e-08,22.012666666666664,0.015260697523013176,-6.250001695422271e-06,107.25566666666667,1.894081454308542,6.069999999999993,-0.0032806606121583716
S046,12053.0,12082.984375,N2,0.612505208333333,44.68172075129659,-139.74,159.85,299.59000000000003,0.42,0.0,390.625,390.625,0.0,0.07198059875565235,0.12401959270615269,65.27749243668863,0.07232688338144393,65.28399497579785,0.0,0,0.005122991666666666,0.0010844258196224805,1.89168888120901e-08,22.016,0.011718930554164907,1.7361115820614328e-06,103.825,2.0448858973872692,6.280000000000001,-0.003002118869932419
S046,12083.0,12112.984375,N2,-0.2149375000000005,47.72976738123628,-147.21,182.56,329.77,0.07,0.0,390.625,390.625,0.0,0.07880950133074058,0.11557806855349138,65.27663100035109,0.07897411393329325,65.28399497579785,0.0,0,0.004770725,0.001032278571595381,-1.987663299604844e-07,22.014666666666663,0.011175369742827092,-9.930558249392217e-06,100.30166666666668,1.0284294930729192,3.469999999999999,-0.0017768407597766806
S046,12113.0,12142.984375,N2,0.18654166666666736,46.00976842292946,-182.94,155.21,338.15,-0.5800000000000001,0.0,390.625,390.625,0.0,0.06441510347391793,0.07880950133074056,65.27931983029164,0.0644398517526649,65.28399497579785,0.0,0,0.005219066666666666,0.0009944746245575545,6.485548634317662e-07,22.020666666666664,0.012364824660660969,-2.222222825038783e-06,97.16799999999999,1.009859396153741,3.769999999999996,0.0009261113623348949
S046,12143.0,12172.984375,N2,-0.30720312499999963,38.78190668179437,-133.37,134.21,267.58000000000004,-1.275,0.0,390.625,390.625,0.0,0.07198059875565235,0.11557806855349138,65.27766806528236,0.07224005457127897,65.28399497579785,0.0,0,0.00471735,0.0010842353192457807,-2.6353913398956553e-07,22.016666666666662,0.011925695879999153,-2.916667457863486e-06,100.86433333333333,0.9332119563933781,3.0400000000000063,0.0016014934899884698
S046,12173.0,12202.984375,N2,0.38143229166666653,42.32054480244346,-165.86,145.35,311.21000000000004,1.4100000000000001,0.0,390.625,390.625,0.0,0.045595976308831845,0.11557806855349141,65.28077926007616,0.04637740699024849,65.28399497579785,0.0,0,0.0052084,0.0009461687957230465,-1.328815464630931e-07,22.016666666666662,0.01738453974720742,7.777779887635708e-06,102.82600000000001,0.5964427885388502,2.1000000000000085,0.00033659731353008596
S046,12203.0,12232.984375,N2,-0.03908854166666706,44.78062247004457,-133.56,167.68,301.24,-1.15,0.0,390.625,390.625,0.0,0.05581428468591173,0.11987768650679835,65.27965438084803,0.05641143823484775,65.28399497579785,0.0,0,0.005368525,0.0009542637996775316,-2.905046360960927e-07,22.022666666666666,0.015040685563571497,9.23611361656755e-06,102.79766666666666,1.2444990513812741,4.090000000000003,0.0020194797144856016
S046,12233.0,12262.984375,N2,0.0563802083333331,43.94132495289438,-145.45,159.67,305.12,0.095,0.0,390.625,390.625,0.0,0.06441510347391795,0.11987768650679834,65.27861731591676,0.06484331443751654,65.28399497579785,0.0,0,0.004194275,0.0008262615502218411,-2.482494163002974e-07,22.042000000000005,0.012220201853215313,-8.333335593895112e-07,110.20066666666666,1.7065695284855986,6.75,0.0020303477729893063
S046,12263.0,12292.984375,N2,-0.09413541666666732,38.78637092945788,-157.15,128.52,285.67,0.53,0.0,390.625,390.625,0.0,0.08507936450096985,0.10642856726723117,65.27576956401354,0.08509500066571059,65.28399497579785,0.0,0,0.0043650749999999995,0.0008828037830543094,1.364954797351019e-07,22.031333333333333,0.01146976702272326,-1.2638892317407584e-05,112.155,0.9802780217876974,4.200000000000003,-0.0008235766122983441
S046,12293.0,12322.984375,N2,-0.029921874999999667,40.796396390900505,-130.54,137.07,267.61,1.18,0.0,390.625,390.625,0.0,0.045595976308831845,0.09636964965693297,65.2811305172636,0.04608023434437598,65.28399497579785,0.0,0,0.004514525,0.0009494750914979288,4.817651046454818e-07,22.038,0.012220201853215314,2.7777785312983706e-07,106.117,1.965714713109034,6.769999999999996,-0.003292327281989822
S046,12323.0,12352.984375,N2,0.06329687500000082,40.131768385731924,-147.1,139.2,286.29999999999995,-0.2,0.0,390.625,390.625,0.0,0.09636964965693297,0.11557806855349138,65.27351980555729,0.0963268404379126,65.28399497579785,0.0,0,0.0048241,0.0010292383057387633,1.9404041722016524e-07,22.033333333333335,0.014681810363696516,-1.0416669492368886e-06,104.81466666666667,0.8543603195113613,3.4299999999999926,0.0013388892520858429
S046,12353.0,12382.984375,N2,0.002786458333333819,40.27198371692245,-120.27,137.63,257.9,0.655,0.0,390.625,390.625,0.0,0.1015291077584267,0.09090593428863095,65.27292181211033,0.10129878314939098,65.28399497579785,0.0,0,0.004429125000000001,0.0009485144486906882,-4.851010430504133e-07,22.033333333333335,0.011642832797715072,2.7083340680159106e-06,107.08766666666665,0.771214122162077,2.660000000000011,0.001212187828826994
S046,12383.0,12412.984375,N2,-0.07259895833333321,43.53584098386637,-145.78,154.97,300.75,0.31,0.0,390.625,390.625,0.0,0.09636964965693297,0.09090593428863096,65.2739588770416,0.09618134756051121,65.28399497579785,0.0,0,0.00429035,0.0009734757200362009,-2.374076164842709e-07,22.037333333333336,0.013148721948877068,-1.1875003221300534e-05,107.98000000000002,0.4308596059042886,1.5700000000000074,-0.00039965288619055926
S046,12413.0,12442.984375,N2,-0.08042187499999974,39.27568146262101,-105.52,118.84,224.36,0.88,0.0,390.625,390.625,0.0,0.09090593428863095,0.10642856726723118,65.27473249908228,0.09085981833136689,65.28399497579785,0.0,0,0.003810016666666666,0.0010255308786455703,-6.478821201937176e-08,22.043333333333337,0.012995725793078342,-5.69444598916166e-06,107.16133333333333,0.8763018252228442,3.6499999999999915,0.0006490973983011609
S046,12443.0,12472.984375,N2,0.3336770833333321,41.338563726358764,-139.41,155.7,295.11,1.07,0.0,390.625,390.625,0.0,0.07198059875565235,0.11110243021644485,65.27775587957922,0.07219644079041121,65.28399497579785,0.0,0,0.004066183333333333,0.0009451199481488522,2.5102263753869296e-07,22.02933333333333,0.010934146311237585,-2.8472229945808298e-06,107.06733333333334,0.5640445214894136,2.0600000000000023,-0.000514097361680058
S046,12473.0,12502.984375,N3,-0.06408333333333402,41.65261061112763,-133.08,145.12,278.20000000000005,0.9450000000000001,0.0,390.625,390.625,0.0,0.07198059875565235,0.10642856726723118,65.27784369387608,0.07215269377122295,65.28399497579785,0.0,0,0.004236983333333333,0.0008874108686072209,-2.0041194672633101e-07,22.02733333333333,0.011234866364234906,-2.7777785312983796e-07,106.93866666666668,0.6574026332638329,2.969999999999999,0.0006697224038960505
S046,12503.0,12532.984375,N2,-0.23792187500000056,41.28570112520976,-130.56,145.15,275.71000000000004,0.44,0.0,390.625,390.625,0.0,0.07880950133074058,0.09090593428863095,65.27707007183538,0.07877924871132905,65.28399497579785,0.0,0,0.004087541666666666,0.0009542147722589619,-1.8595860079172112e-07,22.031333333333333,0.011469767022723258,4.72222350320723e-06,108.06566666666666,1.0433238018733948,4.1299999999999955,0.0014833684579450015
S046,12533.0,12562.984375,N2,0.04925000000000003,43.41277871179368,-139.18,149.45,288.63,0.845,0.0,390.625,390.625,0.0,0.06441510347391795,0.12401959270615269,65.2785295016199,0.06489303615761241,65.28399497579785,0.0,0,0.004269,0.0008323762370466856,2.2239589366207975e-08,22.039333333333335,0.016110727964792418,9.861113786109215e-06,110.38266666666668,1.8734725926886557,7.3799999999999955,0.00238187564612512
S046,12563.0,12592.984375,N2,-0.2245937499999996,38.58190138282622,-105.75,148.07,253.82,0.26,0.0,390.625,390.625,0.0,0.08507936450096985,0.13188915142607024,65.27524267823239,0.08530317230247922,65.28399497579785,0.0,0,0.004386424999999999,0.000821281525650614,3.752930705547617e-08,22.034,0.014047538337136685,-1.0555558418933806e-05,121.435,1.7895562764737698,7.25,0.002045799166069648
S046,12593.0,12622.984375,N2,0.2567916666666663,40.819424104043456,-120.41,133.73,254.14,0.9749999999999999,0.0,390.625,390.625,0.0,0.045595976308831845,0.09090593428863095,65.28121833156045,0.0460052222035967,65.28399497579785,0.0,0,0.00518705,0.0010569867300491526,3.1024227165860235e-07,22.028666666666663,0.018571184369578428,8.194446667330196e-06,120.38166666666667,2.791267434139711,10.170000000000002,-0.004174341410140355
S046,12623.0,12652.984375,N2,0.13811458333333396,39.80178577818719,-133.6,110.79,244.39,1.62,0.0,390.625,390.625,0.0,0.045595976308831845,0.11987768650679835,65.2806914457793,0.04645098807196805,65.28399497579785,0.0,0,0.005197724999999999,0.0010234090821245431,-2.9161661556440306e-07,22.032,0.013999999999999702,9.23611361656708e-06,109.075,1.656795601957787,7.1200000000000045,0.00035163203983073853
S046,12653.0,12682.984375,N2,-0.2835781249999995,44.80944855672114,-200.57,164.99,365.56,0.34,0.0,390.625,390.625,0.0,0.07198059875565235,0.09090593428863095,65.27810713676666,0.07202065085207607,65.28399497579785,0.0,0,0.004247658333333334,0.001058676874655603,-3.84741640826183e-07,22.039333333333335,0.012364824660660675,0.0,110.097,0.5929145525846576,2.6499999999999915,-0.0003989237193260946
S046,12683.0,12712.984375,N2,0.07170833333333312,43.86952979074159,-142.55,142.92,285.47,1.41,0.0,390.625,390.625,0.0,0.06441510347391793,0.11110243021644485,65.27879294451049,0.064743399123904,65.28399497579785,0.0,0,0.004941525,0.0009963269791464047,4.0615050080037454e-07,22.036666666666665,0.01074967699773117,3.611112090687883e-06,104.83933333333334,2.9881576635482645,8.319999999999993,-0.00521215419166509
S046,12713.0,12742.984375,N2,-0.007932291666667328,43.83183088932059,-138.28,145.81,284.09000000000003,1.69,0.0,390.625,390.625,0.0,0.06441510347391795,0.10152910775842668,65.27896857310421,0.06464285221264422,65.28399497579785,0.0,0,0.004952208333333334,0.001096123585610015,-8.128454895956731e-07,22.031999999999996,0.011944315244779024,5.069445819619526e-06,101.55,1.094565362750591,4.679999999999993,0.0013445836980750048
S046,12743.0,12772.984375,N2,-0.8992447916666658,41.680032324674485,-115.54,141.63,257.17,-0.18,0.0,390.625,390.625,0.0,0.07198059875565235,0.11557806855349138,65.27766806528236,0.07224005457127897,65.28399497579785,0.0,0,0.0047814,0.0010158652174378253,5.548777546868913e-07,22.047333333333334,0.014360439485691705,5.555557062596741e-06,105.84333333333333,0.6800065359163024,3.069999999999993,0.00047694457382394174
S046,12773.0,12802.984375,N2,1.0927552083333343,46.51981562958854,-144.07,147.38,291.45,-0.195,0.0,390.625,390.625,0.0,0.07198059875565235,0.11110243021644485,65.27775587957922,0.07219644079041121,65.28399497579785,0.0,0,0.00446115,0.0009055521395811508,2.6075918531878945e-07,22.04466666666667,0.01359738536958047,1.3888892656491755e-07,106.89766666666668,0.9896487031040633,3.7299999999999898,-0.0005091320825553601
S046,12803.0,12832.984375,N2,-1.0735520833333325,38.29533769065155,-161.61,110.43,272.04,-0.355,0.0,390.625,390.625,0.0,0.07198059875565235,0.12401959270615269,65.27749243668863,0.07232688338144393,65.28399497579785,0.0,0,0.0054218999999999995,0.0009316040145898901,4.503516846657134e-08,22.04666666666667,0.014681810363696516,-9.027780226719691e-07,104.92033333333335,0.7145837172010626,2.950000000000003,0.0010773961255957356
S046,12833.0,12862.984375,N2,0.8374114583333335,44.16346443443421,-127.89,160.43,288.32,1.045,0.0,390.625,390.625,0.0,0.06441510347391793,0.10642856726723118,65.27888075880735,0.06469320480160325,65.28399497579785,0.0,0,0.0053792,0.0010004929834836426,2.2239589366208366e-09,22.044,0.014742229591663674,-3.541667627405422e-06,106.24199999999999,1.2031525256591538,4.239999999999995,0.0016292365530698124
S046,12863.0,12892.984375,N2,0.04354166666666697,37.999107620529685,-121.69,127.03,248.72,1.2,0.0,390.625,390.625,0.0,0.09090593428863095,0.10642856726723118,65.27473249908228,0.0908598183313669,65.28399497579785,0.0,0,0.005304466666666666,0.001023389702030572,4.695105440295531e-07,22.047333333333334,0.014360439485691705,5.555557062596739e-06,111.04966666666665,0.8643551867657688,3.6599999999999966,0.0008701044026975931
S046,12893.0,12922.984375,N2,0.09329687499999982,45.33041851247385,-147.09,143.8,290.89,1.945,0.0,390.625,390.625,0.0,0.1015291077584267,0.12801909579781015,65.27221929773545,0.10151164958465751,65.28399497579785,0.0,0,0.005464600000000001,0.0009605127484838502,-1.6068103317085313e-07,22.042666666666666,0.013148721948877068,-5.763890452444119e-06,109.83766666666666,0.5362007294122454,2.1000000000000085,-0.00033552092434921003
S046,12923.0,12952.984375,N2,-0.017406249999999977,46.18952564504346,-148.47,147.11,295.58000000000004,1.935,0.0,390.625,390.625,0.0,0.05581428468591173,0.10642856726723118,65.27991782373861,0.05623396899754773,65.28399497579785,0.0,0,0.005240424999999999,0.0010458776431184482,3.5666741446056174e-07,22.048000000000002,0.013999999999999702,2.2916672883211567e-06,109.02300000000001,1.1559127706420291,3.9299999999999926,-0.0019066324616515999
S046,12953.0,12982.984375,N3,-0.028416666666666875,45.27713302187491,-153.04,159.67,312.71,1.625,0.0,390.625,390.625,0.0,0.06441510347391793,0.09090593428863095,65.27914420169792,0.06454167075191443,65.28399497579785,0.0,0,0.004834783333333333,0.0011393021049699193,-2.554636109656061e-07,22.041999999999998,0.014236104336041444,3.6111120906878814e-06,107.78966666666666,1.0057384793716933,2.9399999999999977,0.0014753129002042363
S046,12983.0,13012.984375,N2,0.006333333333333021,46.18372951223972,-159.06,145.46,304.52,1.255,0.0,390.625,390.625,0.0,0.06441510347391793,0.11110243021644485,65.27879294451049,0.064743399123904,65.28399497579785,0.0,0,0.004557233333333333,0.0010944098693918209,-7.775336310583851e-07,22.047333333333334,0.012364824660660675,2.777778531298367e-07,109.74133333333333,0.5805958625029576,2.4000000000000057,0.0008882641298459514
S046,13013.0,13042.984375,N3,-0.07621874999999984,45.71329950050622,-155.6,140.89,296.49,1.435,0.0,390.625,390.625,0.0,0.07880950133074058,0.11987768650679835,65.27654318605423,0.0790127365191831,65.28399497579785,0.0,0,0.004375749999999999,0.0010138440400278537,4.720352842977659e-07,22.046666666666667,0.017191729277636472,-1.3194448023667264e-06,112.39433333333334,0.9707237277184251,4.019999999999996,-0.000522534863968879
S046,13043.0,13072.984375,N2,-0.026692708333334043,45.370627270356,-154.65,132.42,287.07,1.645,0.0,390.625,390.625,0.0,0.05581428468591173,0.10152910775842669,65.28000563803546,0.056174413442823465,65.28399497579785,0.0,0,0.004920175000000001,0.0010058886590348854,2.7104499540066065e-07,22.053333333333338,0.01273664878302826,-7.013890791528385e-06,108.64933333333332,0.7560111698175426,3.1200000000000045,1.1875003221301348e-05
S046,13073.0,13102.984375,N2,0.28639062500000007,43.13568447888587,-150.06,138.56,288.62,2.505,0.0,390.625,390.625,0.0,0.07198059875565235,0.14627537173085567,65.27696555090748,0.0725841969058877,65.28399497579785,0.0,0,0.004525208333333334,0.0011329351621329538,4.446984713266249e-08,22.049333333333333,0.01671991493864558,-6.319446158703791e-06,105.37133333333333,2.0636581327557346,6.6499999999999915,-0.0036021537549245177
S046,13103.0,13132.984375,N2,-0.16864062499999993,42.757477422035194,-116.71,129.39,246.09999999999997,2.68,0.0,390.625,390.625,0.0,0.08507936450096985,0.11987768650679834,65.27550612112296,0.08519955735647028,65.28399497579785,0.0,0,0.004322391666666666,0.0010335533794942034,-6.507512615970216e-07,22.044666666666664,0.01454494948618064,-3.194445310993126e-06,102.42599999999999,1.766860869829125,5.579999999999998,-0.0027171535148528404
S046,13133.0,13162.984375,N2,-0.3360468750000001,44.04176140380725,-134.82,153.87,288.69,0.56,0.0,390.625,390.625,0.0,0.045595976308831845,0.12801909579781015,65.28051581718559,0.04659730520323746,65.28399497579785,0.0,0,0.004322375,0.000965187667956341,4.189382646859442e-07,22.040000000000003,0.011254628677422515,1.180555875801807e-06,102.19900000000001,2.0127863771399097,6.3799999999999955,0.0035005912273739243
S046,13163.0,13192.984375,N2,0.37815624999999975,43.45714578798389,-153.79,160.63,314.41999999999996,1.4,0.0,390.625,390.625,0.0,0.09636964965693297,0.12401959270615269,65.27334417696356,0.09638441605321318,65.28399497579785,0.0,0,0.00501625,0.001040470296308357,6.193725638488944e-07,22.042666666666666,0.015040685563570983,6.250001695421327e-07,105.97166666666666,1.365818639335236,4.989999999999995,0.0024146187105628016
S046,13193.0,13222.984375,N2,-0.03416145833333317,41.99653411945857,-115.49,163.53,279.02,0.045000000000000005,0.0,390.625,390.625,0.0,0.06441510347391793,0.12801909579781015,65.27844168732304,0.06494260106865354,65.28399497579785,0.0,0,0.005272449999999999,0.001061290439747763,3.836329165670894e-08,22.03066666666667,0.015902480589168714,-4.513890113360037e-06,106.37566666666666,1.4036991209736582,4.569999999999993,-0.002203090875404426
S046,13223.0,13252.984375,N2,-0.06591666666666664,43.36336688613315,-126.19,166.26,292.45,0.024999999999999998,0.0,390.625,390.625,0.0,0.09090593428863095,0.12401959270615269,65.27438124189483,0.09098619548795525,65.28399497579785,0.0,0,0.00505895,0.0010039041525464472,-1.5067321795605965e-07,22.034666666666666,0.01431394036905599,-9.791669322827035e-06,105.3,0.6603433450359997,3.0400000000000063,-0.001062430843758367
S046,13253.0,13282.984375,N2,-0.007026041666666553,43.68799302010018,-135.68,168.1,303.78,1.1400000000000001,0.0,390.625,390.625,0.0,0.07880950133074058,0.11987768650679835,65.27654318605423,0.07901273651918311,65.28399497579785,0.0,0,0.004738708333333333,0.0010666186400320825,-2.58513307973445e-07,22.032,0.013999999999999704,-2.430556214886074e-06,105.14766666666668,0.5104356527081118,1.9000000000000057,-0.0005115626387702468
S046,13283.0,13312.984375,N2,0.02916145833333393,44.564622966903514,-129.17,169.3,298.47,-0.14,0.0,390.625,390.625,0.0,0.06441510347391793,0.12401959270615269,65.2785295016199,0.06489303615761241,65.28399497579785,0.0,0,0.005005566666666667,0.001058850671981444,6.763382911073922e-07,22.041333333333334,0.016069294390924926,1.201389214786545e-05,103.77466666666666,0.6927901718574121,2.5400000000000063,-0.000985069711661705
S046,13313.0,13342.984375,W,-0.5369687499999994,42.55109339173738,-124.69,145.76,270.45,-0.22000000000000003,0.0,390.625,390.625,0.0,0.032258047015004204,0.12401959270615269,65.2816406964137,0.03373402353609553,65.28399497579785,0.0,0,0.004749375,0.0009976985438372654,-6.163146203110406e-07,22.038666666666664,0.013349989596333574,1.458333728931643e-06,101.11133333333333,0.5139762208074959,2.280000000000001,0.0005513890384627391
S046,13343.0,13372.984375,W,0.5225781249999998,42.54791655775115,-116.81,154.01,270.82,1.6400000000000001,0.0,390.625,390.625,0.0,0.08507936450096985,0.11110243021644486,65.27568174971668,0.08512995774782113,65.28399497579785,0.0,0,0.0047387,0.0010793897859438914,4.5757955120973077e-07,22.035333333333334,0.012578641509408538,6.944446328245926e-06,101.411,0.7862711576379565,2.489999999999995,0.0010844794608505463
S046,13373.0,13402.984375,W,-0.4036822916666674,41.747809306710664,-118.1,155.74,273.84000000000003,1.02,0.0,390.625,390.625,0.0,0.09090593428863095,0.11987768650679834,65.27446905619169,0.09095474483436122,65.28399497579785,0.0,0,0.004525208333333333,0.0010450240579035596,2.0296164359853616e-07,22.02933333333333,0.015902480589168707,4.9305568930548675e-06,105.19266666666668,1.2866310875909828,5.429999999999993,0.0009390974769687159
S046,13403.0,13432.984375,W,0.5754791666666667,41.970670405052694,-138.96,132.85,271.81,3.66,0.0,390.625,390.625,0.0,0.04559597630883185,0.12801909579781015,65.28051581718559,0.04659730520323746,65.28399497579785,0.0,0,0.004535874999999999,0.00100452827704102,-3.099642767915246e-07,22.037333333333333,0.014126413400277761,-9.791669322826757e-06,105.14233333333335,0.7475902769714313,2.960000000000008,0.0006507293431882954
S046,13433.0,13462.984375,W,-0.17879166666666707,43.157438119034175,-169.68,153.72,323.4,2.435,0.0,390.625,390.625,0.0,0.08507936450096985,0.12801909579781015,65.27533049252924,0.08526873841288649,65.28399497579785,0.0,0,0.004493174999999999,0.0009642426791918101,-1.6707491511363795e-07,22.040666666666667,0.014360439485691705,-1.111111412519348e-06,106.137,0.7938981882668183,2.8500000000000085,0.0005730209887752281
S046,13463.0,13492.984375,W,0.08415104166666663,41.84507436176652,-123.6,150.5,274.1,0.165,0.0,390.625,390.625,0.0,0.07198059875565237,0.14627537173085564,65.27696555090748,0.0725841969058877,65.28399497579785,0.0,0,0.004247658333333334,0.0009640397424020213,5.282010981448293e-08,22.040000000000003,0.016124515496596756,1.1319447515040858e-05,108.919,0.9255137312145442,3.219999999999999,0.0015722573709465535
S046,13493.0,13522.984375,W,-0.28930208333333335,40.28163701692015,-114.18,141.38,255.56,-0.11499999999999999,0.0,390.625,390.625,0.0,0.07880950133074058,0.13928372696486196,65.27610411456993,0.07920410655536247,65.28399497579785,0.0,0,0.004546549999999999,0.001003904152546447,1.145338852359714e-07,22.029999999999998,0.01154700538379227,8.33333559389515e-07,109.10266666666666,0.4549647116962894,1.9500000000000028,0.00014458337255408336
S046,13523.0,13552.984375,W,0.030281249999999933,41.17446369596166,-137.06,159.61,296.67,-0.635,0.0,390.625,390.625,0.0,0.07880950133074059,0.11557806855349138,65.27663100035109,0.07897411393329326,65.28399497579785,0.0,0,0.005058958333333334,0.0010307566508463038,2.785606224394049e-07,22.032666666666668,0.014360439485691705,2.7777785312983907e-07,108.515,0.6804985917203165,2.9399999999999977,-0.000605937664371111
S046,13553.0,13582.984375,W,0.21847395833333347,42.35295466761967,-127.81,142.5,270.31,1.1600000000000001,0.0,390.625,390.625,0.0,0.06441510347391795,0.11987768650679834,65.27861731591676,0.06484331443751654,65.28399497579785,0.0,0,0.005336474999999999,0.0009967826490138159,7.232695104355227e-07,22.03533333333333,0.012578641509408538,-2.222222825038696e-06,107.76066666666665,1.4319239582541459,5.159999999999997,-0.0024214589901961235
S046,13583.0,13612.984375,W,-0.07786979166666642,37.467378091282676,-121.47,119.78,241.25,0.4,0.0,390.625,390.625,0.0,0.06441510347391793,0.1428261375083551,65.2780904301356,0.06513929976430491,65.28399497579785,0.0,0,0.005528633333333334,0.0008098498104930047,-2.9907386585120054e-07,22.035999999999998,0.014742229591663672,1.0763891808781184e-05,106.083,0.5735512182883059,2.089999999999989,0.0001577430983461088
S046,13613.0,13642.984375,W,-0.5131666666666663,39.724005959260815,-146.59,147.47,294.06,-0.99,0.0,390.625,390.625,0.0,0.06441510347391795,0.12801909579781015,65.27844168732305,0.06494260106865356,65.28399497579785,0.0,0,0.005560675,0.0008350415973920101,1.4316735654496434e-07,22.043333333333333,0.013984117975601722,6.944446328245926e-06,106.389,0.9003234603926151,3.030000000000001,0.0013963545454520796
S046,13643.0,13672.984375,W,0.6721979166666668,44.943129823079325,-145.6,141.2,286.79999999999995,2.6799999999999997,0.0,390.625,390.625,0.0,0.07198059875565235,0.14627537173085567,65.27696555090748,0.0725841969058877,65.28399497579785,0.0,0,0.005261775,0.0010300683590786584,-3.3776376349928476e-07,22.05,0.013662601021279173,-5.8333349157265775e-06,105.56566666666666,1.2903660548679803,4.459999999999994,-0.0021574658630278487
S046,13673.0,13702.984375,N1,-0.5860260416666672,45.375414742013525,-143.46,134.75,278.21000000000004,2.135,0.0,390.625,390.625,0.0,0.05581428468591172,0.13928372696486196,65.27921394765572,0.05824983142091093,65.28399497579785,0.0,0,0.005325825,0.000978321672240271,-5.690554929078484e-07,22.05,0.016329931618554176,-3.854942103446209e-22,101.72800000000001,0.9014114857636708,3.509999999999991,-0.0005605557076160234
S046,13703.0,13732.984375,N1,0.5113802083333335,42.710713701809546,-134.43,151.3,285.73,3.53,0.0,390.625,390.625,0.0,0.07880950133074058,0.12401959270615269,65.27645537175736,0.07905124268630732,65.28399497579785,0.0,0,0.005261775,0.0009325209779811927,1.993223196946396e-07,22.044,0.015620499351812976,-1.0069447175956593e-05,102.46033333333335,0.8116094435680801,2.7299999999999898,0.0003744792682506697
S046,13733.0,13762.984375,N1,-0.18471354166666706,44.30072711876493,-135.38,140.14,275.52,1.8450000000000002,0.0,390.625,390.625,0.0,0.08507936450096985,0.09636964965693297,65.27594519260727,0.08502477129928568,65.28399497579785,0.0,0,0.005560633333333333,0.0009712165732843638,3.4214419003477374e-07,22.04466666666667,0.012578641509408536,2.77777853129837e-07,104.15933333333332,0.8208488831014435,2.799999999999997,-0.000801597439669443
S046,13763.0,13792.984375,N1,0.16089062500000034,43.18001484324707,-138.36,143.68,282.04,2.6399999999999997,0.0,390.625,390.625,0.0,0.05581428468591173,0.13564084008881694,65.2793031236606,0.056645293172331315,65.28399497579785,0.0,0,0.005443249999999999,0.000909570138856812,-7.4502624376797e-08,22.050666666666665,0.012092238098144446,5.347223672749361e-06,102.83566666666667,0.4855010012576923,1.8100000000000023,-0.00010739586246632347
S046,13793.0,13822.984375,W,0.01652083333333311,45.15313087127772,-178.79,151.58,330.37,1.21,0.0,390.625,390.625,0.0,0.07880950133074058,0.1356408400888169,65.2761919288668,0.07916606437129152,65.28399497579785,0.0,0,0.00488815,0.0009205292105631413,-3.2636597394910315e-07,22.049333333333337,0.009637888196533767,2.1527783617562375e-06,102.20433333333334,0.5465935926770048,2.25,0.0007941321598665779
S046,13823.0,13852.984375,N2,-0.4114427083333333,39.52672797260957,-132.69,148.19,280.88,-1.2349999999999999,0.0,390.625,390.625,0.0,0.045595976308831845,0.12801909579781015,65.28051581718559,0.04659730520323746,65.28399497579785,0.0,0,0.005336499999999999,0.0009257139406965849,6.115887075707219e-08,22.053333333333338,0.01164283279771507,1.020833610252151e-05,102.57966666666667,1.4632600209425823,4.719999999999999,0.0022480908876114586
S046,13853.0,13882.984375,N2,0.17492708333333434,39.59079768123332,-137.05,146.87,283.92,0.575,0.0,390.625,390.625,0.0,0.06441510347391793,0.13928372696486196,65.27817824443247,0.06509035852398379,65.28399497579785,0.0,0,0.005251099999999999,0.000926698219486797,-4.3256001317274665e-07,22.047333333333334,0.012364824660660675,3.888889943817718e-06,107.64766666666668,1.2411008106605292,4.8700000000000045,0.002020799159287967
S046,13883.0,13912.984375,N2,0.020776041666666245,40.7197103451839,-148.38,136.22,284.6,-0.14500000000000002,0.0,390.625,390.625,0.0,0.09636964965693297,0.1428261375083551,65.27290510547927,0.09652680681325165,65.28399497579785,0.0,0,0.004877483333333333,0.0011129922055981443,-6.641047808443956e-07,22.057333333333336,0.013148721948877068,-3.402778700840502e-06,111.47866666666667,0.8022457368052647,3.3499999999999943,-0.0004309723391309531
S046,13913.0,13942.984375,N2,0.34938541666666717,37.24103778703839,-100.92,118.07,218.99,0.9650000000000001,0.0,390.625,390.625,0.0,0.08507936450096985,0.1356408400888169,65.27515486393553,0.08533750193500038,65.28399497579785,0.0,0,0.0049095,0.0010502811290316514,-6.671876809862418e-08,22.050666666666668,0.012092238098144446,-1.1180558588475941e-05,109.70199999999998,0.7990469322887116,2.730000000000004,-0.0008615280114822064
S046,13943.0,13972.984375,N2,-0.33293229166666627,39.76158338689388,-157.57,117.0,274.57,0.25,0.0,390.625,390.625,0.0,0.045595976308831845,0.11110243021644485,65.28086707437302,0.046303542442395415,65.28399497579785,0.0,0,0.00505895,0.000976281131385832,7.466942129704351e-07,22.043999999999997,0.015620499351812976,4.65277903992477e-06,107.59833333333333,0.6726766599852335,2.969999999999999,-7.197918619226989e-05
S046,13973.0,14002.984375,N2,0.22012500000000018,37.84297051474961,-134.94,132.22,267.15999999999997,0.745,0.0,390.625,390.625,0.0,0.045595976308831845,0.13188915142607024,65.28042800288873,0.046670043902081695,65.28399497579785,0.0,0,0.0046960000000000005,0.0009830278225971022,-5.448699394720972e-07,22.043333333333337,0.01490711984999828,1.9444449719088568e-06,108.21533333333335,0.657711858558814,2.6700000000000017,0.0008325696702934232
S046,14003.0,14032.984375,W,-0.09485937499999994,41.057935217875055,-127.46,156.62,284.08,-0.11,0.0,390.625,390.625,0.0,0.07880950133074058,0.1592592172022985,65.27557722878876,0.07942993832091819,65.28399497579785,0.0,0,0.0044825,0.0009207767644766021,1.1008596736272988e-07,22.043333333333337,0.011925695879998624,-5.6944459891616595e-06,111.89133333333335,1.0127906441554886,3.980000000000004,0.0008436113399553319
S046,14033.0,14062.984375,W,0.11018229166666677,44.05269780943826,-126.76,175.12,301.88,0.69,0.0,390.625,390.625,0.0,0.07198059875565235,0.11557806855349138,65.27766806528236,0.07224005457127897,65.28399497579785,0.0,0,0.0046426333333333325,0.0009651586392344468,2.4825180345372267e-07,22.04533333333334,0.011175369742826569,-3.263889774275585e-06,110.95466666666667,1.9213081191961088,6.989999999999995,-0.003345973129875524
S046,14063.0,14092.984375,W,-0.4948958333333336,42.60176535844279,-121.09,144.5,265.59000000000003,0.44,0.0,390.625,390.625,0.0,0.06441510347391793,0.11987768650679834,65.27861731591676,0.06484331443751654,65.28399497579785,0.0,0,0.004535875,0.0009042298432229496,2.877246874253167e-07,22.041999999999998,0.013266499161421317,7.777779887635437e-06,107.93266666666665,0.7379698879734573,3.3400000000000034,-0.0009156252483792474
S046,14093.0,14122.984375,W,0.174119791666666,42.88992545429793,-133.04,160.75,293.78999999999996,1.6949999999999998,0.0,390.625,390.625,0.0,0.08507936450096985,0.1682735042192389,65.27427672096692,0.08567509150460749,65.28399497579785,0.0,0,0.0049521999999999995,0.0010709105518202724,1.0258010595163463e-06,22.044,0.012806248474865426,2.0833338984737816e-07,108.10533333333333,1.4869874093466817,4.660000000000011,0.002543056245403713
S046,14123.0,14152.984375,W,0.3177187500000003,44.951888861222855,-150.9,158.38,309.28,1.675,0.0,390.625,390.625,0.0,0.07198059875565235,0.13928372696486196,65.27714117950119,0.07249895266608093,65.28399497579785,0.0,0,0.0047173499999999995,0.0010715488217995484,-2.3184771914271898e-07,22.041999999999998,0.011075498483890531,8.333335593895114e-07,109.41566666666668,0.9405235539610658,4.429999999999993,0.0004632987367889359
S046,14153.0,14182.984375,N1,-0.01692708333333363,47.23761214080911,-154.29,169.61,323.9,0.315,0.0,390.625,390.625,0.0,0.07198059875565235,0.12801909579781015,65.27740462239177,0.07237009888915866,65.28399497579785,0.0,0,0.004407775,0.0009755221291057421,3.1218823572814546e-07,22.042666666666666,0.015902480589168412,6.180557232138874e-06,110.06033333333335,1.0138063040947334,2.969999999999999,-0.0016047573797627432
S046,14183.0,14212.984375,W,-0.5452552083333333,43.511968704712366,-137.37,140.21,277.58000000000004,0.54,0.0,390.625,390.625,0.0,0.05581428468591173,0.13188915142607024,65.27939093795744,0.056587124453516206,65.28399497579785,0.0,0,0.004493174999999999,0.0009922009092794665,2.0293625296664842e-08,22.051333333333336,0.01359738536958047,-1.1111114125193489e-06,108.82000000000001,0.6102840868535467,2.3700000000000045,0.0008109724422125779
S046,14213.0,14242.984375,N1,0.502432291666667,45.74493010581654,-164.51,149.35,313.86,3.115,0.0,390.625,390.625,0.0,0.07198059875565235,0.12401959270615269,65.27749243668863,0.07232688338144393,65.28399497579785,0.0,0,0.004055525,0.0009967719395002049,-2.2515609406361054e-07,22.043333333333337,0.013984117975601723,-4.72222350320723e-06,110.50333333333334,0.4652693365735109,1.789999999999992,-0.000500069580097
S046,14243.0,14272.984375,N1,0.243588541666667,42.15952574482567,-121.81,135.82,257.63,1.6749999999999998,0.0,390.625,390.625,0.0,0.03225804701500421,0.12801909579781015,65.28155288211684,0.033837346977996965,65.28399497579785,0.0,0,0.004343724999999999,0.000848041242732333,5.810092721921851e-08,22.040666666666667,0.011234866364234906,2.222222825038696e-06,109.65266666666666,1.5016100988235552,5.700000000000003,-0.0012385420026426873
S046,14273.0,14302.984375,N2,-0.6269166666666666,42.21166354137865,-163.21,137.47,300.68,0.9199999999999999,0.0,390.625,390.625,0.0,0.07198059875565235,0.14963787306546278,65.27687773661061,0.07262662223880093,65.28399497579785,0.0,0,0.004706675,0.0009666034188719798,3.5388746578978555e-07,22.042666666666666,0.01412641340027776,-2.569445141450991e-06,104.56466666666667,0.6854863642375072,2.5700000000000074,0.0002886111894019047
S046,14303.0,14332.984375,W,0.5550104166666668,45.840614208816596,-133.02,202.91,335.93,1.55,0.0,390.625,390.625,0.0,0.07198059875565235,0.1356408400888169,65.27722899379805,0.07245613329614982,65.28399497579785,0.0,0,0.0042583249999999994,0.0008930707807195353,1.9042648394815642e-07,22.038,0.012220201853215313,-5.000001356337066e-06,102.43900000000001,0.9801984492948347,3.1899999999999977,-0.0015217018016769215
S046,14333.0,14362.984375,N2,0.00013541666666695799,42.95394498377491,-140.97,151.55,292.52,2.255,0.0,390.625,390.625,0.0,0.045595976308831845,0.11987768650679834,65.2806914457793,0.046450988071968055,65.28399497579785,0.0,0,0.004749375,0.0010768001134727838,6.268784252599897e-07,22.037333333333333,0.013148721948877068,2.0138894351913187e-06,102.65433333333334,0.5895912896989669,2.1100000000000136,0.000619271001321346
S046,14363.0,14392.984375,N2,-0.14571875000000029,43.6296035059633,-127.86,171.85,299.71,0.875,0.0,390.625,390.625,0.0,0.05581428468591173,0.10642856726723118,65.2799178237386,0.05623396899754773,65.28399497579785,0.0,0,0.004728041666666667,0.0011190939891703566,-6.201596734374116e-07,22.045333333333335,0.015216949614017445,-3.6805565539703404e-06,104.36333333333336,0.7090102647744642,2.519999999999996,0.001232430889873831
S046,14393.0,14422.984375,N2,-0.04153125000000018,46.384370913607384,-193.84,217.84,411.68,1.48,0.0,390.625,390.625,0.0,0.03225804701500421,0.1682735042192389,65.28049911055452,0.03503631771035824,65.28399497579785,0.0,0,0.004471825,0.0010193926350405911,-4.089304494711505e-07,22.043333333333337,0.014907119849998282,-5.000001356337069e-06,109.00533333333334,1.6764560503898958,6.480000000000004,0.0029325007954917512
S046,14423.0,14452.984375,N2,-0.1452135416666661,42.97923993114079,-113.72,144.0,257.72,2.0300000000000002,0.0,390.625,390.625,0.0,0.07198059875565237,0.16232629604869594,65.27652511771517,0.07400601081942286,65.28399497579785,0.0,0,0.003970125,0.0010510848012291873,-2.9575463752024665e-07,22.04466666666667,0.011469767022723258,1.0138891639239052e-05,111.41233333333334,1.1311813392300212,3.6300000000000097,0.0015144101330322624
S046,14453.0,14482.984375,N2,0.22391145833333356,44.86242635782098,-174.27,143.34,317.61,2.8099999999999996,0.0,390.625,390.625,0.0,0.07880950133074058,0.13928372696486196,65.27610275286192,0.0803185189242209,65.28399497579785,0.0,0,0.004119575,0.001048258600906761,-2.8687182261062893e-07,22.04666666666667,0.014681810363696516,6.180557232138873e-06,111.809,0.42894716069309474,1.8500000000000085,-0.0004610070695006164
S046,14483.0,14512.984375,W,-0.2924010416666666,43.85068198366949,-141.67,148.21,289.88,2.0,0.0,390.625,390.625,0.0,0.07198059875565235,0.19249988726547923,65.27556052215772,0.07324742175540255,65.28399497579785,0.0,0,0.004567908333333333,0.0010936188092432186,-3.108197457735855e-07,22.049333333333333,0.014126413400277761,5.625001525879201e-06,108.89,2.1939583709207726,6.4199999999999875,-0.003585625972663295
S046,14513.0,14542.984375,W,0.08184374999999905,47.000326040940955,-153.18,154.67,307.85,2.2300000000000004,0.0,390.625,390.625,0.0,0.07880950133074058,0.11987768650679834,65.27654318605423,0.07901273651918311,65.28399497579785,0.0,0,0.003927416666666667,0.0009885318455781899,-3.8195713486250394e-07,22.044666666666668,0.011469767022723258,-6.52777954855117e-06,106.61833333333334,1.248412547553448,4.010000000000005,-0.00191677135329084
S046,14543.0,14572.984375,W,0.27884375000000006,45.30953244209677,-123.87,166.3,290.17,2.33,0.0,390.625,390.625,0.0,0.06441510347391795,0.13928372696486196,65.27817824443247,0.06509035852398379,65.28399497579785,0.0,0,0.0033296499999999995,0.0009265876523567536,9.897181504226752e-08,22.041333333333334,0.013349989596333572,8.680557910307406e-06,106.67433333333335,1.6228486956241146,4.650000000000006,0.002618368765833544
S046,14573.0,14602.984375,N2,-0.16781249999999973,41.94369473753686,-130.88,174.13,305.01,-0.675,0.0,390.625,390.625,0.0,0.06441510347391795,0.1428261375083551,65.2780904301356,0.06513929976430491,65.28399497579785,0.0,0,0.0038740499999999995,0.0009985469430627686,-1.6712200714030143e-07,22.04266666666667,0.01412641340027776,4.86111242977215e-07,106.03466666666667,1.0954564751229912,3.789999999999992,0.00039923621941086765
S046,14603.0,14632.984375,N2,-0.8850260416666669,40.133854167171904,-140.62,135.45,276.07,-0.745,0.0,390.625,390.625,0.0,0.07198059875565235,0.1356408400888169,65.27722899379805,0.07245613329614982,65.28399497579785,0.0,0,0.003575175,0.0010574710371329325,7.608129233976027e-07,22.034666666666666,0.011175369742826569,-2.4305562148860747e-06,108.20166666666665,0.6276574614301081,1.990000000000009,0.0007526043708236676
S046,14633.0,14662.984375,N2,0.9832447916666673,43.66272257723679,-150.3,143.42,293.72,1.4849999999999999,0.0,390.625,390.625,0.0,0.07880950133074059,0.1428261375083551,65.27601630027307,0.07924203316249204,65.28399497579785,0.0,0,0.0032442499999999993,0.0008894444825282802,1.2008119576855354e-07,22.042666666666666,0.013148721948877068,-9.513891469696917e-06,110.021,0.8774445851448395,3.6400000000000006,0.0011910072675258422
S046,14663.0,14692.984375,N2,-0.037078124999999316,41.67429045904357,-164.31,159.6,323.90999999999997,-0.81,0.0,390.625,390.625,0.0,0.06441510347391793,0.15291936305524628,65.27782698724504,0.06528519465073877,65.28399497579785,0.0,0,0.0028813833333333335,0.0009675978777651155,-1.3115368141104626e-07,22.040000000000003,0.013416407864998451,1.4583337289316406e-06,112.66499999999999,1.7753717920480778,5.6200000000000045,-0.002702813233185015
S046,14693.0,14722.984375,N2,-0.4652395833333331,39.040463575534034,-119.96,119.33,239.29,-0.09,0.0,390.625,390.625,0.0,0.09090593428863095,0.1682735042192389,65.27323965603566,0.09138639068751711,65.28399497579785,0.0,0,0.003233608333333333,0.0010187856439231409,-4.38937402055502e-07,22.05,0.012649110640673247,5.55555706259674e-07,110.05866666666665,0.9808014863139007,4.450000000000003,-0.0013651392592066143
S046,14723.0,14752.984375,W,-0.24781250000000032,43.68332221328689,-141.6,144.81,286.40999999999997,-0.495,0.0,390.625,390.625,0.0,0.09636964965693297,0.1428261375083551,65.27290374377125,0.0974432640477389,65.28399497579785,0.0,0,0.0037459583333333333,0.0010348451848451643,4.3055936158836843e-07,22.03533333333333,0.015434449203719973,-1.2777781243972504e-05,105.95500000000001,1.2255576961802606,3.75,0.0015178129117331023
S046,14753.0,14782.984375,N2,0.020770833333333627,40.68602110765419,-139.78,132.75,272.53,0.845,0.0,390.625,390.625,0.0,0.07880950133074059,0.1592592172022985,65.27557586708075,0.080541217110762,65.28399497579785,0.0,0,0.003906066666666667,0.0010173809654642103,4.226129618633252e-08,22.032666666666664,0.012364824660660674,-1.388889265649184e-06,105.29366666666668,1.141944199843212,3.3499999999999943,-0.0019147574638556477
S046,14783.0,14812.984375,N2,0.7542239583333329,48.5786792623773,-145.7,151.02,296.72,-0.49,0.0,390.625,390.625,0.0,0.09636964965693297,0.15291936305524628,65.2726416625887,0.09661118271986717,65.28399497579785,0.0,0,0.004130233333333333,0.0008822603804370277,-1.0535376121792567e-07,22.031333333333336,0.012578641509408536,1.5277781922141027e-06,104.02633333333331,0.7436687584013607,2.719999999999999,-0.0010868405726021505
S046,14813.0,14842.984375,R,-0.07083854166666673,51.40430114416268,-140.52,193.26,333.78,-1.765,0.0,390.625,390.625,0.0,0.09090593428863095,0.13188915142607024,65.27420561330112,0.09104881011987649,65.28399497579785,0.0,0,0.003959425,0.0009499550486075643,-3.79462993560925e-07,22.032666666666668,0.013399834161494236,-2.7777785312983695e-06,101.943,0.372962464599322,1.8000000000000114,-0.00038822927198059785
S046,14843.0,14872.984375,R,-0.16524479166666625,53.20611444383916,-177.66,196.31,373.97,-2.04,0.0,390.625,390.625,0.0,0.07198059875565235,0.1899835519196333,65.27564833645458,0.07320693626283639,65.28399497579785,0.0,0,0.0038526916666666664,0.0009852422189139864,-7.51541002479597e-09,22.04266666666667,0.013148721948877068,1.1805558758018074e-06,101.98233333333333,0.7728634348246076,3.1000000000000085,0.0010677433451994765
S046,14873.0,14902.984375,W,-0.3630208333333337,42.81684481651156,-123.25,141.93,265.18,0.53,0.0,390.625,390.625,0.0,0.06441510347391795,0.14963787306546275,65.27791480154188,0.06523671748092498,65.28399497579785,0.0,0,0.004333066666666666,0.0009381319179921103,3.3022057568917525e-07,22.039333333333335,0.01526069752301247,-1.3750003729926933e-05,104.81099999999999,0.8973306711203707,2.8000000000000114,0.001504618463709437
S046,14903.0,14932.984375,W,0.5872656250000003,51.33459995027178,-159.02,249.83,408.85,-1.955,0.0,390.625,390.625,0.0,0.10642856726723118,0.15291936305524628,65.27056753272615,0.10652365544566593,65.28399497579785,0.0,0,0.0040768666666666665,0.001005661755042696,-7.614455190553166e-08,22.03666666666667,0.01074967699773117,-1.1111114125193497e-06,103.39833333333333,1.5182579564165712,5.1200000000000045,-0.002669063224029737
S046,14933.0,14962.984375,N2,-0.22382291666666626,40.46305190605344,-168.34,122.64,290.98,0.75,0.0,390.625,390.625,0.0,0.09636964965693297,0.15291936305524628,65.27264166258868,0.09661118271986714,65.28399497579785,0.0,0,0.00354315,0.0010935404096328585,2.7217889327769643e-08,22.04466666666667,0.01359738536958047,-5.555557062596741e-06,100.26266666666668,0.8779936724651759,3.5999999999999943,-0.0009017363557227508
S046,14963.0,14992.984375,N2,-0.09816666666666637,38.4312944783899,-116.99,134.81,251.8,-0.185,0.0,390.625,390.625,0.0,0.07198059875565235,0.14963787306546278,65.27687773661061,0.07262662223880093,65.28399497579785,0.0,0,0.003713933333333333,0.0010247208459976903,4.903282580100525e-07,22.04666666666667,0.011642832797715073,-1.0416669492368897e-06,101.56999999999998,1.4002594997594795,4.820000000000007,0.0023400006347657977
S046,14993.0,15022.984375,N2,0.22466145833333215,36.03457492883822,-118.03,88.51,206.54000000000002,0.96,0.0,390.625,390.625,0.0,0.09090593428863095,0.18483053424390916,65.27271277025449,0.09156570604969033,65.28399497579785,0.0,0,0.0032869499999999994,0.0010157664581487223,2.3681169618372825e-07,22.043333333333337,0.01490711984999828,5.9722238422914954e-06,106.644,1.6309825259640272,5.6000000000000085,0.002541806245064626
S046,15023.0,15052.984375,W,-0.48942708333333335,40.165785402048755,-116.66,138.2,254.85999999999999,-0.06999999999999999,0.0,390.625,390.625,0.0,0.07198059875565235,0.14627537173085564,65.27696555090748,0.0725841969058877,65.28399497579785,0.0,0,0.00367125,0.0010960424432931418,-6.404315973393005e-07,22.05133333333334,0.007180219742845852,5.55555706259674e-07,107.85566666666666,1.009071135032389,3.819999999999993,-0.0014257295534205604
S046,15053.0,15082.984375,N2,-0.25098437499999976,46.66770378743123,-138.35,162.15,300.5,-0.5549999999999999,0.0,390.625,390.625,0.0,0.1015291077584267,0.1592592172022985,65.27142760735568,0.10261464025615176,65.28399497579785,0.0,0,0.0029774583333333337,0.0010346853216947438,1.7034314516686867e-07,22.045333333333335,0.01687865186822919,-1.3263892486949722e-05,105.92433333333335,0.8807030651070128,3.3499999999999943,-0.0009744099865478474
S046,15083.0,15112.984375,N2,0.5349114583333332,44.98822659402673,-126.04,150.75,276.79,0.95,0.0,390.625,390.625,0.0,0.05581428468591173,0.11557806855349138,65.27974219514489,0.05635248076399608,65.28399497579785,0.0,0,0.0030201249999999994,0.0009468879603073429,-3.2987791066566575e-07,22.048000000000002,0.013999999999999702,8.819446836872326e-06,103.17266666666667,0.6521141686000154,2.3200000000000074,-0.0007834029902894396
S046,15113.0,15142.984375,W,-0.09269270833333287,43.16836820797035,-129.7,183.7,313.4,-0.61,0.0,390.625,390.625,0.0,0.07880950133074058,0.16532992583014125,65.27540160019505,0.07950429708846155,65.28399497579785,0.0,0,0.0025506333333333337,0.001115084263881235,-2.5258644004623473e-07,22.045333333333335,0.015216949614017445,4.9305568930546074e-06,102.39899999999999,0.8912962470469615,3.1199999999999903,-0.000836701615858727
S046,15143.0,15172.984375,N1,0.23736458333333305,46.90627658596178,-139.45,163.85,303.29999999999995,0.305,0.0,390.625,390.625,0.0,0.07198059875565235,0.17399263633843817,65.27617522223574,0.07296133208298249,65.28399497579785,0.0,0,0.002614633333333333,0.0010764403601170335,1.2149005031739651e-07,22.046000000000003,0.011999999999999744,-8.611113447024947e-06,103.91100000000002,0.550444365944462,2.1899999999999977,0.00011010419653434108
S046,15173.0,15202.984375,N2,-0.6610468750000003,52.9027771777891,-142.07,197.24,339.31,-2.48,0.0,390.625,390.625,0.0,0.07880950133074058,0.17399263633843817,65.27513815730447,0.07961497859113946,65.28399497579785,0.0,0,0.002998775,0.0009711197785932485,-1.5246748927611956e-08,22.043333333333333,0.015776212754931972,5.000001356337066e-06,102.16799999999999,0.5147452444332702,2.3400000000000034,-3.6736121076422775e-05
S046,15203.0,15232.984375,N2,0.8524739583333328,55.21773397739425,-151.48,192.73,344.21,-2.0149999999999997,0.0,390.625,390.625,0.0,0.07198059875565235,0.18219044808935517,65.27591177934515,0.07308471215181543,65.28399497579785,0.0,0,0.0031908916666666667,0.0009353130651982552,-4.6832195863768416e-07,22.048000000000005,0.011944315244779024,7.152779718093303e-06,103.88366666666666,1.3341925981240086,4.079999999999998,0.002347327025642098
S046,15233.0,15262.984375,N2,-0.74603125,51.20404964940784,-184.05,203.55,387.6,-2.675,0.0,390.625,390.625,0.0,0.07880950133074058,0.17950549357115012,65.27496252871074,0.07968819701134179,65.28399497579785,0.0,0,0.002732025,0.0010315549061368473,-2.929334561993968e-07,22.053333333333335,0.01374368541872524,-9.097224690002162e-06,106.34633333333333,0.717711563853397,2.700000000000003,-0.0007433682572071002
S046,15263.0,15292.984375,N2,0.6007760416666664,51.34913436234678,-168.54,167.56,336.1,-1.38,0.0,390.625,390.625,0.0,0.08507936450096985,0.17399263633843817,65.2741010923732,0.08574137067640457,65.28399497579785,0.0,0,0.0026999666666666666,0.0009467618138804618,-3.671385544538179e-07,22.045333333333335,0.012310790208412662,-1.0416669492368897e-06,104.22999999999999,0.8522323626805081,2.6700000000000017,-0.0014531253941854915
S046,15293.0,15322.984375,W,-0.1015989583333333,48.860252727118755,-140.0,186.8,326.8,-2.175,0.0,390.625,390.625,0.0,0.05581428468591173,0.14627537173085564,65.27903968077001,0.05681862772326923,65.28399497579785,0.0,0,0.0026893083333333332,0.0009974293608725159,1.9399375922139737e-07,22.04466666666667,0.011469767022723258,3.3333342375580447e-06,106.844,1.2074618006380162,4.780000000000001,0.0019529171964293606
S046,15323.0,15352.984375,N2,0.17495833333333308,39.310016038355464,-121.56,121.85,243.41,0.64,0.0,390.625,390.625,0.0,0.06441510347391793,0.16232629604869594,65.27756354435445,0.06542970352273139,65.28399497579785,0.0,0,0.0025293,0.0010644802064857758,-1.047890909258602e-07,22.051333333333332,0.01359738536958047,-4.444445650077392e-06,107.63766666666668,0.8073978091512395,2.730000000000004,-0.0009836461001644144
S046,15353.0,15382.984375,W,0.08414062500000045,44.09095527159141,-140.12,142.98,283.1,2.5700000000000003,0.0,390.625,390.625,0.0,0.08507936450096985,0.15612494995995993,65.27462797815436,0.08554129733417533,65.28399497579785,0.0,0,0.002966758333333333,0.0008588429910431179,-1.2060875667555243e-07,22.048000000000002,0.013999999999999702,3.9583344071001784e-06,104.68333333333334,0.8504404087817611,3.25,-0.0005963196062064894
S046,15383.0,15412.984375,W,-0.05034374999999969,43.002020510748515,-123.27,149.64,272.90999999999997,0.675,0.0,390.625,390.625,0.0,0.07198059875565235,0.16532992583014125,65.2764386651263,0.07283679018201988,65.28399497579785,0.0,0,0.0029454083333333336,0.0008365301199581652,-7.171160799468529e-08,22.04666666666667,0.012736648783028263,-3.680556553970342e-06,106.12233333333333,1.23871891708957,4.590000000000003,0.0012196878308614995
S046,15413.0,15442.984375,W,0.050354166666666464,44.35658858989157,-133.39,165.74,299.13,0.03,0.0,390.625,390.625,0.0,0.08507936450096985,0.16232629604869594,65.27445234956063,0.08560840071144457,65.28399497579785,0.0,0,0.002924075,0.0009083294112682909,2.2178196120387404e-07,22.050666666666675,0.009637888196533767,-2.7083340680159106e-06,105.80499999999999,0.4938876390435377,2.049999999999997,0.000424618170740605
S046,15443.0,15472.984375,W,-0.03144791666666761,39.724354015717324,-146.6,154.25,300.85,0.615,0.0,390.625,390.625,0.0,0.04559597630883186,0.15291936305524628,65.27990111710756,0.04710067934544976,65.28399497579785,0.0,0,0.0034470750000000004,0.0010431555585697658,7.491432153708808e-07,22.04533333333334,0.011175369742826569,2.986111921145748e-06,106.99199999999999,0.7989634952027945,3.3499999999999943,0.0011553475356302976
S046,15473.0,15502.984375,W,-0.020677083333332767,45.44305768348881,-177.67,158.52,336.19,0.185,0.0,390.625,390.625,0.0,0.06441510347391795,0.1592592172022985,65.27765135865131,0.06538168733122526,65.28399497579785,0.0,0,0.003404366666666666,0.0009712165732843639,-1.1703345188624447e-07,22.04666666666667,0.010434983894998797,1.0416669492368888e-06,108.82866666666665,0.9373819333062111,3.7700000000000102,0.0007151390828827815
S046,15503.0,15532.984375,W,0.13427083333333295,51.38785924719945,-148.93,221.69,370.62,-2.13,0.0,390.625,390.625,0.0,0.07198059875565235,0.1428261375083551,65.27705336520434,0.07254164045861104,65.28399497579785,0.0,0,0.00337235,0.001057955352318802,-1.3511158179025118e-07,22.036666666666665,0.01074967699773117,4.1666677969475633e-07,108.69566666666667,0.596739381044094,2.3499999999999943,0.0006583682341493696
S046,15533.0,15562.984375,W,-0.2368229166666671,46.75462930299317,-181.63,173.52,355.15,0.22,0.0,390.625,390.625,0.0,0.03225804701500421,0.17399263633843817,65.28032212025279,0.03766797096941436,65.28399497579785,0.0,0,0.003543133333333333,0.001042367497041657,-1.9403217069015044e-07,22.046000000000003,0.014047538337136687,4.444445650077392e-06,105.69266666666667,1.950953499075659,6.8799999999999955,-0.003290487003712838
S046,15563.0,15592.984375,W,-0.6895833333333331,51.97824013903692,-148.67,222.36,371.03,-3.635,0.0,390.625,390.625,0.0,0.07198059875565235,0.15612494995995993,65.27670210801689,0.07271108047885638,65.28399497579785,0.0,0,0.0040982,0.000868816470838347,9.841018294547062e-08,22.040666666666667,0.009977753031396964,1.3888892656491877e-07,100.07766666666666,1.861377058941996,5.810000000000002,-0.0032133689272376646
S046,15593.0,15622.984375,W,0.8715677083333329,52.96545369970134,-157.27,208.17,365.44,-1.0550000000000002,0.0,390.625,390.625,0.0,0.06441510347391793,0.16532992583014128,65.27747436834957,0.0668213249463996,65.28399497579785,0.0,0,0.004130241666666667,0.0010121660107234825,-1.0924417025937773e-07,22.034666666666666,0.013349989596333572,4.652779039924771e-06,97.095,0.4129709432877832,1.480000000000004,-0.00030392369355568846
S046,15623.0,15652.984375,W,-0.28614062499999987,44.76498022951618,-164.85,155.88,320.73,-0.545,0.0,390.625,390.625,0.0,0.07880950133074059,0.1592592172022985,65.27557722878878,0.07942993832091817,65.28399497579785,0.0,0,0.0034364083333333333,0.0010190910696615337,-6.037364918990049e-07,22.039333333333335,0.01526069752301247,-8.333335593895109e-06,101.13199999999999,2.120431402647426,7.099999999999994,0.0038023621425678535
S046,15653.0,15682.984375,W,-0.0553958333333331,39.02599533283316,-155.88,130.12,286.0,0.45499999999999996,0.0,390.625,390.625,0.0,0.032258047015004204,0.1682735042192389,65.28049911055453,0.03503631771035824,65.28399497579785,0.0,0,0.0034150749999999996,0.0011255421002232659,2.8741913178687385e-07,22.04533333333334,0.011175369742826569,1.4583337289316444e-06,107.20033333333332,1.7930244157722874,5.769999999999996,0.003157257800905434
S046,15683.0,15712.984375,W,0.5510312499999999,42.434662539886226,-159.71,141.52,301.23,0.305,0.0,390.625,390.625,0.0,0.07880950133074059,0.18219044808935514,65.27487471441388,0.07972463591821313,65.28399497579785,0.0,0,0.0035751583333333333,0.0010444961145279043,5.161856868993291e-07,22.046000000000003,0.011999999999999745,5.782413155169315e-22,109.23166666666665,0.6265412108464135,2.25,-0.0007352432550030561
S046,15713.0,15742.984375,W,-0.47631770833333376,44.39779550098156,-123.86,169.84,293.7,-1.17,0.0,390.625,390.625,0.0,0.08507936450096985,0.15612494995995996,65.27462797815436,0.08554129733417531,65.28399497579785,0.0,0,0.003927416666666667,0.0009885210466764086,3.55659818701123e-08,22.040666666666667,0.01526069752301247,-1.3750003729926933e-05,107.87566666666666,0.7432975327701707,2.510000000000005,-0.0009996183267193823
S046,15743.0,15772.984375,W,0.2947343749999999,42.36115489199521,-120.76,134.52,255.28000000000003,0.405,0.0,390.625,390.625,0.0,0.08507936450096985,0.16532992583014125,65.27436453526379,0.08564179762065834,65.28399497579785,0.0,0,0.004044841666666667,0.0009782745779843998,-6.201889703203594e-08,22.044666666666668,0.017074997966487232,1.847222723313416e-05,104.48033333333333,1.7649031764440286,6.5800000000000125,-0.0029994105358644033
S046,15773.0,15802.984375,W,-0.02807291666666695,43.524413719425134,-126.55,137.77,264.32,1.33,0.0,390.625,390.625,0.0,0.07880950133074058,0.15612494995995993,65.27566504308562,0.0793925871267584,65.28399497579785,0.0,0,0.00378865,0.0010639660368169654,8.464637712846602e-07,22.049333333333333,0.015040685563570985,6.250001695421354e-07,102.31899999999999,0.3369307545080054,1.2000000000000028,-0.0002305208958661293
S046,15803.0,15832.984375,W,-0.11149479166666752,41.45802349094822,-136.8,134.85,271.65,0.49,0.0,390.625,390.625,0.0,0.07880950133074059,0.17677362623014656,65.27505034300762,0.07965164462108577,65.28399497579785,0.0,0,0.004471833333333333,0.001019366546221503,7.75460279801507e-08,22.049333333333333,0.013148721948877068,2.4305562148860747e-06,102.55266666666667,0.6792296289833722,3.230000000000004,0.00040527788771644127
S046,15833.0,15862.984375,W,-0.12204166666666603,42.5507611883336,-144.53,174.4,318.93,-0.33,0.0,390.625,390.625,0.0,0.09636964965693297,0.17116012950028858,65.27211477680753,0.09677756247978905,65.28399497579785,0.0,0,0.004204958333333333,0.000877922039020107,-2.722895703910511e-08,22.051333333333336,0.014544949486180642,1.111111412519348e-06,103.44466666666666,0.5830479301814637,2.4200000000000017,0.0003244445324556566
S046,15863.0,15892.984375,W,0.2530520833333331,46.0219374145974,-144.24,172.92,317.15999999999997,0.435,0.0,390.625,390.625,0.0,0.07880950133074059,0.17116012950028858,65.27522460989331,0.08068742971484813,65.28399497579785,0.0,0,0.004119566666666667,0.0009526006310213227,1.3286158117989924e-07,22.055333333333333,0.014544949486180642,6.666668475116089e-06,105.11466666666665,1.7076157517297499,5.5,0.002875000779893876
S046,15893.0,15922.984375,W,-0.0890572916666672,41.97794163427841,-139.59,169.37,308.96000000000004,-0.675,0.0,390.625,390.625,0.0,0.07198059875565235,0.1592592172022985,65.27661429372003,0.07275311384156109,65.28399497579785,0.0,0,0.004183625,0.0009604371839818573,2.235111283396073e-07,22.05266666666667,0.017688665548561754,-9.583335932979377e-06,109.04666666666667,1.0648954043577354,3.480000000000004,0.0016857643461817362
S046,15923.0,15952.984375,W,-0.08630729166666716,44.115573029347075,-151.79,156.89,308.67999999999995,1.895,0.0,390.625,390.625,0.0,0.045595976308831845,0.17116012950028858,65.27937423132639,0.04752157167572157,65.28399497579785,0.0,0,0.00424765,0.0009205292105631413,9.1182316401453e-08,22.058666666666667,0.01431394036905562,1.0416669492368884e-06,108.76733333333331,1.1372362209419045,4.160000000000011,-0.0016980560161827317
S046,15953.0,15982.984375,W,0.15293229166666691,41.82152145197393,-160.38,139.02,299.4,2.565,0.0,390.625,390.625,0.0,0.07880950133074058,0.16532992583014125,65.27540160019505,0.07950429708846155,65.28399497579785,0.0,0,0.0041515833333333335,0.001019369164265604,1.6096141519135597e-07,22.052000000000003,0.013012814197295145,-3.263889774275585e-06,106.521,0.6488366512459034,2.6299999999999955,0.000420243169553811
S046,15983.0,16012.984375,W,0.2829322916666663,37.47186934882507,-105.63,98.93,204.56,1.165,0.0,390.625,390.625,0.0,0.07198059875565235,0.18483053424390916,65.2758239650483,0.07312558167454768,65.28399497579785,0.0,0,0.0040021499999999995,0.001026899813759843,3.260808176217495e-07,22.05466666666667,0.012310790208412664,2.7083340680159106e-06,109.15633333333332,0.777699527809779,2.8999999999999915,0.0007877432692445916
S046,16013.0,16042.984375,N1,-0.36104166666666715,41.832746015859755,-137.31,145.89,283.2,0.5800000000000001,0.0,390.625,390.625,0.0,0.07198059875565235,0.18483053424390916,65.27582260334027,0.07433117730282807,65.28399497579785,0.0,0,0.00437575,0.0008364732736316207,-8.432685851288583e-23,22.041999999999998,0.015143755588800406,2.5000006781685324e-06,108.946,0.8055416397265457,3.030000000000001,-0.0008790280162293866
S046,16043.0,16072.984375,W,-0.33166666666666644,42.409716633462146,-169.96,168.25,338.21000000000004,-1.16,0.0,390.625,390.625,0.0,0.06441510347391793,0.1682735042192389,65.27738655405271,0.06686807495231904,65.28399497579785,0.0,0,0.0043544,0.0010248,-2.579792366480133e-07,22.050666666666668,0.013148721948877068,-3.819445480535259e-06,105.121,0.8749337117747841,3.410000000000011,-0.0007551043715018364
S046,16073.0,16102.984375,N1,0.30087499999999895,40.7973377586419,-153.81,148.16,301.97,0.5549999999999999,0.0,390.625,390.625,0.0,0.09090593428863095,0.14963787306546278,65.27376654181681,0.0912036790055749,65.28399497579785,0.0,0,0.004098216666666667,0.0009866827942094098,-3.91409394371038e-07,22.044,0.015620499351812976,-6.319446158703792e-06,105.13100000000001,0.5422259676555513,2.280000000000001,0.00014232642749740376
S046,16103.0,16132.984375,R,0.0726874999999998,39.18743789423906,-125.2,123.09,248.29000000000002,-0.44,0.0,390.625,390.625,0.0,0.07198059875565235,0.14963787306546278,65.27687773661061,0.07262662223880093,65.28399497579785,0.0,0,0.0038953833333333337,0.000983874714105183,-3.433147632689787e-07,22.034666666666666,0.01765093639316459,-5.347223672749363e-06,107.51666666666668,0.6217734492741075,2.319999999999993,-0.00023972228725105461
S046,16133.0,16162.984375,R,0.03583854166666616,39.582926854381896,-131.04,142.29,273.33,0.8500000000000001,0.0,390.625,390.625,0.0,0.032258047015004204,0.18742764807756854,65.27988441047651,0.035702775272596854,65.28399497579785,0.0,0,0.003724583333333333,0.0010058684107388115,4.58546131333044e-08,22.034666666666666,0.01431394036905562,1.0625002882216266e-05,106.12233333333333,1.6215294906010465,5.269999999999996,-0.0027063549008124192
S046,16163.0,16192.984375,R,-0.08316145833333342,41.79898441568006,-131.52,155.65,287.17,0.51,0.0,390.625,390.625,0.0,0.07880950133074058,0.18219044808935514,65.27487471441388,0.07972463591821313,65.28399497579785,0.0,0,0.0036072166666666666,0.0011454268868223564,3.9470713832116383e-07,22.03733333333333,0.010934146311237583,3.472223164122971e-07,102.29133333333334,0.6611390843755104,2.6299999999999955,2.0277783278478325e-05
S046,16193.0,16222.984375,R,-0.549901041666666,37.15353798682064,-106.92,111.41,218.32999999999998,-0.31,0.0,390.625,390.625,0.0,0.05581428468591172,0.15291936305524628,65.27886405217629,0.05693321369258481,65.28399497579785,0.0,0,0.004204958333333332,0.0008933624441385603,1.4286614118547662e-07,22.033333333333335,0.014681810363696516,-7.013890791528385e-06,101.50333333333334,0.8472242258628406,3.469999999999999,0.0006207640572819186
S046,16223.0,16252.984375,R,0.46752604166666606,41.76902473691815,-140.86,152.91,293.77,1.02,0.0,390.625,390.625,0.0,0.07880950133074058,0.14627537173085564,65.27592848597621,0.0792798443585524,65.28399497579785,0.0,0,0.004023475,0.0009542637996775316,-1.8153064820167328e-07,22.031999999999996,0.013999999999999702,3.958334407100177e-06,110.34433333333332,4.720608494204487,13.700000000000003,0.008065453576783196
S046,16253.0,16282.984375,R,0.0696302083333333,46.210583090920174,-143.31,166.83,310.14,-0.61,0.0,390.625,390.625,0.0,0.08507936450096985,0.17677362623014656,65.27401327807634,0.08577435620270946,65.28399497579785,0.0,0,0.004204966666666667,0.000966847695118293,-2.4741716781064666e-07,22.031333333333336,0.01359738536958047,5.8333349157265775e-06,115.82199999999999,0.7157858152641291,2.769999999999996,0.00037812510257299913
S046,16283.0,16312.984375,R,-0.5114583333333336,45.98485062652805,-151.93,168.31,320.24,-0.255,0.0,390.625,390.625,0.0,0.09090593428863095,0.11987768650679835,65.2744690561917,0.0909547448343612,65.28399497579785,0.0,0,0.004322375000000001,0.000876065713502703,8.756838312944424e-08,22.038000000000004,0.014236104336041444,4.0277788703826366e-06,108.94633333333333,4.460720781318743,13.670000000000002,-0.007835522958854972
S046,16313.0,16342.984375,R,0.6392812499999998,46.74276211912455,-164.77,164.82,329.59000000000003,3.06,0.0,390.625,390.625,0.0,0.05581428468591173,0.17677362623014656,65.27816153780141,0.05738389472096813,65.28399497579785,0.0,0,0.004941525,0.0010366848602034275,6.535659324994392e-07,22.045333333333335,0.01431394036905562,8.958335763437244e-06,103.419,0.7783673083234331,2.769999999999996,-0.001140868365035905
S046,16343.0,16372.984375,R,-0.14518749999999975,43.10473916648467,-160.2,153.88,314.08,0.030000000000000002,0.0,390.625,390.625,0.0,0.07880950133074059,0.17677362623014656,65.2750503430076,0.07965164462108577,65.28399497579785,0.0,0,0.004375758333333333,0.0011761673775150183,-1.1136350677178459e-06,22.042000000000005,0.015143755588800814,-5.833334915726589e-06,101.20566666666667,0.7607526244158171,2.6499999999999915,0.0004339237288204561
S046,16373.0,16402.984375,R,0.01821875000000001,43.50309868458202,-155.46,166.76,322.22,1.685,0.0,390.625,390.625,0.0,0.045595976308831845,0.16232629604869594,65.27963767421697,0.047312327007064524,65.28399497579785,0.0,0,0.004002133333333334,0.0009436725326557348,3.038468706181832e-07,22.041333333333334,0.016069294390924922,-1.6319448871377924e-05,104.589,1.6729581584725903,5.679999999999993,0.0026176048767374348
S046,16403.0,16432.984375,R,0.055749999999999564,39.79462713236759,-129.58,126.81,256.39,0.135,0.0,390.625,390.625,0.0,0.07880950133074059,0.18483053424390916,65.274785538409,0.08086767820697982,65.28399497579785,0.0,0,0.0035751583333333337,0.0010444961145279043,5.390489743513929e-07,22.032666666666668,0.01526069752301247,7.3611131079406825e-06,108.53733333333334,0.4986711229747402,1.8499999999999943,-0.0005894446043415265
S046,16433.0,16462.984375,R,0.12982812499999952,43.33417561547171,-142.6,159.9,302.5,0.745,0.0,390.625,390.625,0.0,0.07198059875565235,0.16232629604869594,65.27652647942317,0.07279501700104272,65.28399497579785,0.0,0,0.004098216666666666,0.0009585636318935165,-1.6789327471063224e-07,22.038666666666668,0.013349989596333572,6.250001695421322e-07,108.514,0.8866739348073035,3.1599999999999966,-0.00029437507985435245
S046,16463.0,16492.984375,W,-0.09633854166666561,43.627905827052246,-117.17,139.81,256.98,-0.74,0.0,390.625,390.625,0.0,0.045595976308831845,0.19249988726547926,65.27867171695151,0.04806804700511346,65.28399497579785,0.0,0,0.0034150666666666668,0.001037042186005736,5.409693307751004e-07,22.035999999999998,0.014742229591663674,4.930556893054608e-06,105.34766666666668,1.0313443761529042,3.460000000000008,-0.001488785126081035
S046,16493.0,16522.984375,R,-0.08469791666666666,45.26196225415161,-171.42,154.78,326.2,-0.405,0.0,390.625,390.625,0.0,0.07880950133074058,0.17116012950028858,65.27522597160133,0.0795781987644228,65.28399497579785,0.0,0,0.003863358333333333,0.0009781249306354252,2.17375710008602e-07,22.040666666666667,0.011234866364234906,2.777778531298362e-07,102.97166666666668,1.43255967492535,5.019999999999996,-0.0019223963548167208
S046,16523.0,16552.984375,R,-0.17216666666666752,37.421948962603786,-127.61,149.69,277.3,-0.085,0.0,390.625,390.625,0.0,0.07880950133074059,0.1592592172022985,65.27557722878878,0.07942993832091817,65.28399497579785,0.0,0,0.004183608333333333,0.0009746208005837736,-2.696756373903095e-07,22.040000000000003,0.01437590576856491,6.250001695421348e-07,102.87599999999999,2.3294085086132927,6.88000000000001,0.00393451495619438
S046,16553.0,16582.984375,R,-0.49269270833333334,42.989693735695596,-135.38,151.44,286.82,-0.615,0.0,390.625,390.625,0.0,0.08507936450096985,0.19982631347136334,65.2732229494046,0.08606662529174337,65.28399497579785,0.0,0,0.003286966666666667,0.0010291083351890392,5.54825671339429e-07,22.040666666666667,0.012364824660660675,2.7777785312983695e-06,106.58166666666666,1.1878891175339372,4.219999999999999,0.0018640630056594523
S046,16583.0,16612.984375,R,0.21931250000000116,39.99582419669805,-110.44,184.58,295.02,0.46499999999999997,0.0,390.625,390.625,0.0,0.07198059875565235,0.16532992583014125,65.27643866512632,0.07283679018201988,65.28399497579785,0.0,0,0.004055525,0.0009829572469721153,-9.41558415136284e-09,22.037333333333333,0.013148721948877068,7.291668644658222e-06,108.68933333333334,1.3973330152671388,4.780000000000001,-0.0022515283885439405
S046,16613.0,16642.984375,R,0.15528645833333385,42.21996486311827,-136.45,180.67,317.12,0.115,0.0,390.625,390.625,0.0,0.07880950133074059,0.1899835519196333,65.27461127152331,0.07983327329004171,65.28399497579785,0.0,0,0.004279674999999999,0.0008512601361364222,6.644077323154653e-08,22.046,0.016653327995728707,4.027778870382637e-06,105.05866666666667,0.8899952559174442,3.519999999999996,-0.0010331947247164514
S046,16643.0,16672.984375,R,0.3142187499999995,45.077422395322415,-131.72,172.33,304.05,0.565,0.0,390.625,390.625,0.0,0.07198059875565235,0.17116012950028858,65.2762630365326,0.07291994750128501,65.28399497579785,0.0,0,0.004108883333333333,0.0009484895991639667,1.3593015840119318e-07,22.041333333333334,0.011175369742826569,-4.236112260230014e-06,104.26866666666666,0.6972552537549563,2.430000000000007,0.000984861378271856
S046,16673.0,16702.984375,R,0.28227604166666614,43.385655023877234,-136.97,170.55,307.52,1.915,0.0,390.625,390.625,0.0,0.08507936450096985,0.1592592172022985,65.2745401638575,0.08557490065634467,65.28399497579785,0.0,0,0.004279683333333334,0.0008827754714849952,1.749523044032944e-08,22.043333333333333,0.013984117975601722,-4.1666677969475633e-07,103.75066666666667,0.6317274377099313,2.789999999999992,-0.0006493057316910069
S046,16703.0,16732.984375,R,-0.3931979166666671,42.45564153205471,-138.87,153.29,292.15999999999997,-0.35,0.0,390.625,390.625,0.0,0.07198059875565237,0.2021987428181051,65.27520926497027,0.07340808997713032,65.28399497579785,0.0,0,0.004493183333333334,0.0010588464712706098,-6.663699724310908e-07,22.040000000000003,0.01527525231651914,1.201389214786545e-05,104.206,0.7936439167956032,3.269999999999996,-0.00036201398709146743
S046,16733.0,16762.984375,R,0.044286458333333084,38.23953876840076,-135.53,121.61,257.14,1.1549999999999998,0.0,390.625,390.625,0.0,0.07198059875565235,0.1899835519196333,65.27564833645458,0.07320693626283639,65.28399497579785,0.0,0,0.00433305,0.0008132640699674369,4.28112095299505e-08,22.040000000000003,0.01437590576856491,-2.4305562148860742e-06,106.50099999999999,1.7690192197938381,5.6000000000000085,0.003043924436828459
S046,16763.0,16792.984375,R,-0.7029166666666662,38.84654500179377,-135.62,123.63,259.25,-0.6599999999999999,0.0,390.625,390.625,0.0,0.07198059875565235,0.17677362623014656,65.27608604623086,0.07421018618628432,65.28399497579785,0.0,0,0.0037886583333333335,0.001063946391943953,-5.118046093219969e-07,22.043333333333337,0.01074967699773117,2.083333898473777e-06,110.068,0.5781660661090378,2.0799999999999983,0.0006197918347959642
S046,16793.0,16822.984375,R,0.7879062499999993,43.93718931008648,-150.71,175.97,326.68,0.6,0.0,390.625,390.625,0.0,0.06441510347391795,0.17950549357115012,65.27703529686526,0.06705359902168428,65.28399497579785,0.0,0,0.0038527083333333334,0.0010259944151556361,2.5332255135702907e-08,22.040666666666667,0.013399834161494236,-1.2500003390842668e-06,111.56733333333335,0.9326197271962212,3.450000000000003,0.00014625003967286442
S046,16823.0,16852.984375,R,-0.052104166666666056,42.280317126313626,-146.66,180.19,326.85,-0.32,0.0,390.625,390.625,0.0,0.05581428468591173,0.17950549357115012,65.27807372350455,0.05743937708739763,65.28399497579785,0.0,0,0.004237,0.0009893659333128466,-4.199740722585918e-08,22.032666666666668,0.012364824660660675,1.94444497190886e-06,108.59166666666667,1.3535707919753914,5.1299999999999955,-0.0016996185166065856
S046,16853.0,16882.984375,R,0.016682291666666592,46.50304013676484,-133.47,180.59,314.06,0.7,0.0,390.625,390.625,0.0,0.05581428468591173,0.1682735042192389,65.27842361898396,0.05874935867093593,65.28399497579785,0.0,0,0.004130233333333333,0.0009985880927033373,-4.645118447569023e-07,22.081333333333337,0.10766408665639378,-6.09027942987181e-05,108.11666666666665,1.6335081539095213,5.1200000000000045,-0.002518334016475159
S046,16883.0,16912.984375,R,-0.03711979166666606,45.3205417023449,-172.2,174.63,346.83,2.1950000000000003,0.0,390.625,390.625,0.0,0.08507936450096985,0.17399263633843817,65.27409836895717,0.08779020278783392,65.28399497579785,0.0,0,0.0036285333333333334,0.0009829482008506631,-3.96981010465769e-07,22.04866666666667,0.01146976702272326,-1.8055560453439407e-06,105.57433333333333,0.757402065543057,3.450000000000003,9.378474766296418e-05
S046,16913.0,16942.984375,R,-0.062182291666667194,41.411379254354955,-146.42,137.96,284.38,0.445,0.0,390.625,390.625,0.0,0.07880950133074058,0.1899835519196333,65.27461127152331,0.07983327329004171,65.28399497579785,0.0,0,0.0036926,0.0010991561490525355,1.7124266798032446e-07,22.040666666666667,0.009977753031396964,3.854942103446209e-22,102.80766666666665,1.9066194924234074,8.010000000000005,0.0020635769486699635
S046,16943.0,16972.984375,R,-0.10111458333333362,41.49446946591442,-181.12,183.66,364.78,0.09,0.0,390.625,390.625,0.0,0.07198059875565235,0.18219044808935517,65.27591177934515,0.07308471215181543,65.28399497579785,0.0,0,0.003222933333333333,0.0010323977409678674,-2.429406040963013e-07,22.039333333333335,0.012364824660660675,1.666667118779022e-05,112.36966666666667,0.8713838929478155,4.0,0.0009446877562629556
S046,16973.0,17002.984375,R,0.34982812500000066,49.13064761876449,-157.02,188.95,345.97,0.6,0.0,390.625,390.625,0.0,0.09090593428863095,0.18483053424390916,65.2727127702545,0.0915657060496903,65.28399497579785,0.0,0,0.003222925,0.001045564665324436,1.439854991280108e-07,22.032666666666664,0.011234866364234906,-5.8333349157265775e-06,111.67266666666667,1.654982242267941,5.739999999999995,-0.0025807645889660887
S046,17003.0,17032.984375,R,-0.2125416666666659,36.02079364753453,-90.56,97.89,188.45,0.085,0.0,390.625,390.625,0.0,0.09636964965693297,0.17950549357115012,65.27185133391694,0.09685957040767136,65.28399497579785,0.0,0,0.003265625,0.0010824049770649616,2.8872620679421764e-08,22.034666666666666,0.013349989596333572,3.6805565539703404e-06,104.06033333333335,0.9804063216623781,3.8900000000000006,-0.0010656600113009998
S046,17033.0,17062.984375,R,0.17395833333333333,40.44993166143709,-138.49,133.93,272.42,1.19,0.0,390.625,390.625,0.0,0.09090593428863095,0.19249988726547923,65.2724493273639,0.09165409635500149,65.28399497579785,0.0,0,0.003649875,0.0009734148701221899,5.620945535195729e-07,22.041333333333334,0.012310790208412662,3.263889774275585e-06,104.72166666666665,1.1236579649618574,3.469999999999999,0.0012425350592814304
S046,17063.0,17092.984375,R,-0.06834895833333364,43.62140967595856,-167.69,158.37,326.06,2.69,0.0,390.625,390.625,0.0,0.06441510347391793,0.19741988090108858,65.27642195849526,0.0660401126556177,65.28399497579785,0.0,0,0.0037673000000000003,0.001049733542381113,-3.4827049377997337e-07,22.03666666666667,0.011925695879998624,-9.027780226719704e-06,106.37899999999999,1.0304346979147503,3.3699999999999903,0.0014186462181657478
S046,17093.0,17122.984375,R,0.03694791666666634,48.16214988255599,-141.4,177.64,319.03999999999996,0.505,0.0,390.625,390.625,0.0,0.07880950133074059,0.18483053424390916,65.27478690011702,0.07976096149723493,65.28399497579785,0.0,0,0.0031055083333333335,0.0009304002543335255,7.20158615494416e-08,22.03066666666667,0.013148721948877068,6.250001695421345e-07,109.39900000000002,1.5237964649738052,6.6299999999999955,0.0022679520041102427
S046,17123.0,17152.984375,R,-0.3169270833333341,43.62772198569792,-146.97,153.62,300.59000000000003,-0.8200000000000001,0.0,390.625,390.625,0.0,0.05581428468591173,0.16232629604869594,65.2786006092857,0.057103648732980565,65.28399497579785,0.0,0,0.003180233333333333,0.0009496083994058931,2.1718321863694118e-08,22.028666666666663,0.013597385369580469,-5.694445989161659e-06,115.38766666666668,1.9528281770009588,5.719999999999999,0.0031491327987013895
S046,17153.0,17182.984375,R,0.27444270833333434,47.89958301621138,-168.09,178.19,346.28,1.105,0.0,390.625,390.625,0.0,0.05581428468591172,0.17677362623014656,65.27816153780141,0.05738389472096813,65.28399497579785,0.0,0,0.003201575,0.0009353561056490731,4.28014439023013e-08,22.02733333333333,0.011234866364234906,-7.361113107940681e-06,116.39033333333333,1.1959194045679764,5.090000000000003,-0.0014673267869267546
S046,17183.0,17212.984375,R,-0.09271874999999904,44.089892082634975,-139.52,170.05,309.57000000000005,0.605,0.0,390.625,390.625,0.0,0.07880950133074058,0.20453835214941968,65.27408302403413,0.08115030191853842,65.28399497579785,0.0,0,0.003169541666666667,0.0009636391604730592,4.360797623914286e-07,22.017999999999994,0.013266499161421816,-5.0000013563371655e-06,112.83833333333334,1.3365928907320874,4.570000000000007,-0.001008993329262514
S046,17213.0,17242.984375,R,0.05639062499999981,42.13347821140764,-186.25,140.38,326.63,0.995,0.0,390.625,390.625,0.0,0.07198059875565235,0.18742764807756854,65.27573615075144,0.07316632297352862,65.28399497579785,0.0,0,0.0031268499999999996,0.0009753692262420422,-1.1257989165036125e-07,22.017999999999997,0.01107549848389083,-2.6388896047333398e-06,108.68566666666668,0.8037274966609578,2.980000000000004,-0.001267326732673268
S046,17243.0,17272.984375,R,-0.1954635416666664,43.65332297147373,-156.39,174.31,330.7,0.105,0.0,390.625,390.625,0.0,0.07198059875565235,0.19741988090108858,65.275384893564,0.07332801019634361,65.28399497579785,0.0,0,0.0029881083333333325,0.0008643951237313614,-4.2230697219698657e-08,22.024666666666665,0.012578641509408536,-9.027780226719704e-06,105.568,1.56768704359852,5.140000000000001,-0.0014802087348656488
S046,17273.0,17302.984375,R,0.409156249999999,43.337756353397204,-131.52,154.0,285.52,1.455,0.0,390.625,390.625,0.0,0.07198059875565235,0.19249988726547923,65.27556052215772,0.07324742175540255,65.28399497579785,0.0,0,0.0029667416666666665,0.0008427910723288555,2.1350504923639575e-07,22.013999999999996,0.015832456116051115,-1.6666671187792305e-06,108.89100000000002,0.5412784249656858,2.3200000000000074,-4.9409735625472545e-05
S046,17303.0,17332.984375,R,-0.1791458333333337,43.40565555507983,-154.88,149.44,304.32,0.2,0.0,390.625,390.625,0.0,0.07880950133074059,0.2021987428181051,65.274172200039,0.08001208027557202,65.28399497579785,0.0,0,0.0030735083333333336,0.0009555409287922848,3.285723547559556e-07,22.021333333333327,0.014313940369056045,2.430556214886309e-06,106.91200000000002,0.8522261045833633,2.700000000000003,-0.0013275003601075194
S046,17333.0,17362.984375,R,-0.2711406249999989,38.599223371680566,-119.0,104.2,223.2,-0.355,0.0,390.625,390.625,0.0,0.08507936450096985,0.19741988090108858,65.27331076370146,0.0860345585035565,65.28399497579785,0.0,0,0.003180233333333333,0.0010323908476067686,2.8341587549258873e-08,22.02466666666667,0.012578641509408536,-2.500000678168533e-06,104.56533333333331,0.6752418496772523,2.6500000000000057,0.00013361114735545396
S046,17363.0,17392.984375,R,0.22827604166666712,42.551943111929496,-155.39,159.34,314.73,0.9299999999999999,0.0,390.625,390.625,0.0,0.1015291077584267,0.18742764807756854,65.2705508260951,0.10199603654734962,65.28399497579785,0.0,0,0.0034043750000000003,0.0009711983496562378,-9.815085127790012e-08,22.022666666666666,0.014126413400277761,-1.1736114294735615e-05,106.54966666666665,0.724198330723168,3.219999999999999,0.0004508681778613774
S046,17393.0,17422.984375,R,0.18538541666666633,44.55103595009272,-126.94,155.58,282.52,1.455,0.0,390.625,390.625,0.0,0.07198059875565235,0.15612494995995996,65.27670210801689,0.07271108047885637,65.28399497579785,0.0,0,0.0034470833333333337,0.0010431382505316457,3.5557127701043764e-07,22.013999999999996,0.010832051206181574,1.52777819221408e-06,107.70733333333334,1.2111645452024913,4.540000000000006,0.0007205557510188121
S046,17423.0,17452.984375,R,-0.19272916666666753,42.39616310456819,-128.61,150.24,278.85,1.52,0.0,390.625,390.625,0.0,0.09090593428863096,0.19982631347136334,65.27218452276533,0.09270540838909475,65.28399497579785,0.0,0,0.0032015583333333333,0.000890453272176904,-2.1402631673890966e-07,22.019999999999996,0.01238278374733783,7.0138907915285715e-06,106.00566666666667,0.6709380663585035,2.6699999999999875,-0.000825034946027275
S046,17453.0,17482.984375,R,-0.0030989583333330016,42.65208225464349,-134.63,168.18,302.81,1.87,0.0,390.625,390.625,0.0,0.07198059875565235,0.19741988090108858,65.275384893564,0.07332801019634361,65.28399497579785,0.0,0,0.0036819083333333334,0.001066089708512948,7.624700419026807e-07,22.021999999999995,0.015143755588800907,4.305556723512401e-06,104.22,1.3137249839039116,4.439999999999998,0.0002897223008144244
S046,17483.0,17512.984375,R,0.04805729166666524,46.284548413037385,-155.18,167.29,322.47,0.265,0.0,390.625,390.625,0.0,0.09090593428863095,0.17399263633843817,65.27306402744193,0.09144653884935343,65.28399497579785,0.0,0,0.003383041666666667,0.001106732393097155,-1.9038698740966452e-07,22.021333333333335,0.01606929439092585,-7.708335424353223e-06,105.71733333333333,0.5963496364456761,2.280000000000001,-0.0006266668366609254
S046,17513.0,17542.984375,W,-0.03927083333333338,41.43471595838023,-129.58,135.29,264.87,-0.034999999999999996,0.0,390.625,390.625,0.0,0.09090593428863095,0.18742764807756854,65.27262495595762,0.09159526315174618,65.28399497579785,0.0,0,0.0030948250000000003,0.0008993401994656971,-7.836699174451813e-08,22.013999999999996,0.012000000000000455,-3.055556384428712e-06,108.13333333333334,2.3458009766862613,8.189999999999998,0.003968681632129346
S046,17543.0,17572.984375,N2,-0.287911458333333,36.301693488999156,-114.85,125.59,240.44,-0.12,0.0,390.625,390.625,0.0,0.07198059875565235,0.17950549357115012,65.27599959364201,0.0730437141901001,65.28399497579785,0.0,0,0.0032015333333333335,0.0008431814942361,7.505383980410143e-08,22.021333333333327,0.015216949614017932,8.26389113061297e-06,114.19100000000002,1.8825148959127354,6.070000000000007,0.003110730010506189
S046,17573.0,17602.984375,N2,-0.0030729166666668326,36.88156610798973,-113.97,94.81,208.78,-0.36,0.0,390.625,390.625,0.0,0.06441510347391793,0.18219044808935514,65.2769474825684,0.06709961258077518,65.28399497579785,0.0,0,0.0033296499999999995,0.0009556481452396588,1.8565282813933055e-07,22.021999999999995,0.015143755588800906,-1.5277781922141283e-06,113.70966666666666,3.3627027654684096,10.680000000000007,-0.005820869634567498
S046,17603.0,17632.984375,N2,0.3176822916666669,37.28809190212265,-101.74,97.97,199.70999999999998,0.31,0.0,390.625,390.625,0.0,0.09090593428863095,0.2021987428181051,65.27209670846847,0.09273410201584159,65.28399497579785,0.0,0,0.0030307666666666666,0.0008581109750816356,-3.6469020309521557e-07,22.017999999999997,0.013266499161421816,-1.388889265649408e-06,106.07733333333333,2.3472678207273687,7.090000000000003,-0.004045626097446312
S046,17633.0,17662.984375,N2,-0.6637656250000007,41.38574489806828,-118.77,134.78,253.55,0.1,0.0,390.625,390.625,0.0,0.09636964965693297,0.17399263633843817,65.27202560080265,0.09771882196080027,65.28399497579785,0.0,0,0.0030307916666666664,0.0009488633629755246,2.0398334526457925e-07,22.022666666666662,0.012092238098144446,-6.458335085268712e-06,101.91933333333334,0.995469515131206,3.280000000000001,0.0014225698303412101
S046,17663.0,17692.984375,N2,0.6131510416666667,38.53323560331418,-152.47,120.62,273.09000000000003,1.605,0.0,390.625,390.625,0.0,0.07880950133074058,0.2021987428181051,65.274172200039,0.08001208027557204,65.28399497579785,0.0,0,0.00294545,0.0009864772665905688,-7.17283180686628e-08,22.026,0.014966629547095446,2.361111751603614e-06,102.12700000000001,1.4690884929098027,5.259999999999991,0.0021595491969263205
S046,17693.0,17722.984375,N2,0.02322395833333335,46.377260251206906,-142.16,153.52,295.68,-0.125,0.0,390.625,390.625,0.0,0.07880950133074059,0.19497818610181894,65.27443428122157,0.0810098748402966,65.28399497579785,0.0,0,0.0033296583333333333,0.0010112500308680121,2.423570535907806e-07,22.031999999999996,0.010770329614268779,7.638890961070517e-07,104.927,0.859186242906624,3.3100000000000023,0.00043135428367900607
S046,17723.0,17752.984375,N2,0.07984895833333236,45.045856709534746,-143.61,155.62,299.23,-0.07500000000000001,0.0,390.625,390.625,0.0,0.045595976308831845,0.2068462551362458,65.27814483117035,0.04846717874696766,65.28399497579785,0.0,0,0.0031161583333333335,0.00085494159640521,-1.4565997874890907e-07,22.026,0.015832456116050487,-8.055557740765483e-06,106.16733333333333,0.852365075670174,2.799999999999997,-0.0012955559069975874
S046,17753.0,17782.984375,N2,-0.18560416666666826,47.22130879069126,-140.18,186.02,326.20000000000005,-1.0899999999999999,0.0,390.625,390.625,0.0,0.09636964965693297,0.2068462551362458,65.27088265323546,0.09896632880050447,65.28399497579785,0.0,0,0.0032336166666666667,0.0009915608586410058,6.818751849704819e-07,22.02333333333333,0.012995725793078646,-3.0555563844285146e-06,104.14866666666667,1.1189123687263838,4.25,-0.0015918059873605641
S046,17783.0,17812.984375,N2,-0.014166666666666158,40.14922911818759,-121.06,128.87,249.93,0.024999999999999998,0.0,390.625,390.625,0.0,0.08507936450096985,0.21358993356949718,65.27269606362344,0.0862568983074597,65.28399497579785,0.0,0,0.0030521499999999996,0.0010349977427511615,-3.30765280698047e-07,22.022,0.014236104336041711,-4.166667796947196e-06,101.89033333333333,0.47711272835206847,2.069999999999993,0.0005940626611498095
S046,17813.0,17842.984375,N2,0.058598958333333805,40.227436031291695,-127.22,160.29,287.51,0.6799999999999999,0.0,390.625,390.625,0.0,0.05581428468591173,0.2068462551362458,65.27710776623908,0.058037414459499004,65.28399497579785,0.0,0,0.003276283333333333,0.0009323961263266213,2.3264416033098966e-07,22.022666666666662,0.010934146311237585,-3.2638897742755857e-06,103.88033333333333,0.7832985098642498,3.530000000000001,0.0012027433818205774
S046,17843.0,17872.984375,W,0.21093749999999964,43.8438312443563,-133.26,150.41,283.66999999999996,-0.21000000000000002,0.0,390.625,390.625,0.0,0.10152910775842672,0.18483053424390916,65.27063591697592,0.10369985651429697,65.28399497579785,0.0,0,0.0031054999999999998,0.000930405126813046,2.0862852881633243e-08,22.019999999999996,0.014375905768565652,2.0833338984761234e-07,109.56166666666667,1.5533792911656257,6.049999999999997,-0.0006310071156160812
S046,17873.0,17902.984375,W,0.07135416666666637,40.66241109529659,-118.62,133.9,252.52,1.355,0.0,390.625,390.625,0.0,0.05581428468591172,0.17399263633843817,65.27824935209827,0.05732822414661543,65.28399497579785,0.0,0,0.0030948166666666665,0.0008198147858239418,-1.2510637074283058e-07,22.01333333333333,0.013743685418726047,-6.458335085268662e-06,106.93066666666667,1.04452200657632,3.549999999999997,-0.0015013198517035186
S046,17903.0,17932.984375,W,-0.16759375000000024,39.292915676174516,-130.6,137.03,267.63,-0.020000000000000004,0.0,390.625,390.625,0.0,0.1015291077584267,0.18742764807756854,65.2705508260951,0.10199603654734961,65.28399497579785,0.0,0,0.00293475,0.0008810187498004795,-2.9821666075755767e-07,22.019333333333332,0.014360439485691705,6.388890621986253e-06,101.972,0.9171601096137276,4.179999999999993,-0.00021062505713570427
S046,17933.0,17962.984375,W,-0.48926041666666625,41.15022255375844,-120.75,135.75,256.5,-0.7,0.0,390.625,390.625,0.0,0.09090593428863095,0.19497818610181894,65.27236151306705,0.09168337263651916,65.28399497579785,0.0,0,0.0031375416666666665,0.0009761067555671812,2.5076200378743583e-07,22.017333333333333,0.01093414631123788,-1.0208336102521817e-05,103.76333333333334,1.1780303712364777,3.9299999999999926,0.0019029866273292699
S046,17963.0,17992.984375,N2,0.16781770833333354,38.82216739744858,-102.48,133.49,235.97000000000003,0.29000000000000004,0.0,390.625,390.625,0.0,0.05581428468591173,0.19982631347136334,65.27737120912965,0.05787652510011575,65.28399497579785,0.0,0,0.0030841666666666665,0.0008826164827123701,2.9152568672029256e-07,22.013333333333332,0.019379255804999027,-1.2847225707255333e-05,106.36066666666669,1.2510793562182843,3.8999999999999915,0.0019327088576141676
S046,17993.0,18022.984375,N2,0.26392708333333365,37.208418631783005,-122.45,116.17,238.62,1.4,0.0,390.625,390.625,0.0,0.06441510347391793,0.21137108216357317,65.2758950727141,0.06631331707046556,65.28399497579785,0.0,0,0.0030734999999999994,0.0008965000278862238,-1.1787590003143986e-07,22.010666666666665,0.015040685563572116,4.0972233336653674e-06,108.53833333333334,0.3760681084886381,1.5300000000000011,0.00029968758129545945
S046,18023.0,18052.984375,N2,-0.2750052083333335,40.51690943297592,-118.91,125.93,244.84,-0.395,0.0,390.625,390.625,0.0,0.09090593428863095,0.17677362623014656,65.27297621314507,0.09147647165141155,65.28399497579785,0.0,0,0.002849375,0.0009273548050099271,2.7313917999652236e-07,22.016000000000002,0.014742229591664508,4.861112429771408e-07,110.21666666666667,0.6096082530791582,2.530000000000001,8.986113548750494e-05
S046,18053.0,18082.984375,N2,0.12211458333333318,40.56558137252611,-153.53,126.91,280.44,1.03,0.0,390.625,390.625,0.0,0.08507936450096985,0.17399263633843817,65.2741010923732,0.08574137067640457,65.28399497579785,0.0,0,0.0030734749999999996,0.0008333093959478678,6.17489316810253e-08,22.004,0.013808210118139852,6.944446328229908e-08,110.82400000000001,0.5149148796969586,2.6899999999999977,0.0005013195804360867
S046,18083.0,18112.984375,N2,-0.24319791666666635,42.234086079384134,-131.18,146.51,277.69,-0.455,0.0,390.625,390.625,0.0,0.05581428468591173,0.18742764807756854,65.27781028061396,0.05760470036813646,65.28399497579785,0.0,0,0.0031161749999999997,0.0009460007105573442,-1.6341432384286112e-07,22.005999999999993,0.009521904571391508,3.4722231641234683e-06,109.63366666666667,1.430506864327777,4.569999999999993,-0.0022081603212240463
S046,18113.0,18142.984375,N2,0.375854166666666,41.80226347290179,-115.72,135.03,250.75,1.53,0.0,390.625,390.625,0.0,0.08507936450096985,0.17399263633843817,65.2741010923732,0.08574137067640457,65.28399497579785,0.0,0,0.00308415,0.0008826505409843695,-3.197049478366279e-08,22.009333333333334,0.01671991493864682,-2.0833338984688395e-07,107.79866666666666,0.9347325226442531,4.429999999999993,-0.0013211809139488154
S046,18143.0,18172.984375,N2,0.023364583333333282,37.081832778616075,-139.45,92.37,231.82,0.235,0.0,390.625,390.625,0.0,0.07880950133074058,0.18742764807756856,65.27469908582017,0.07979717390317573,65.28399497579785,0.0,0,0.0030201416666666664,0.0009322918650279117,-2.1760531076532945e-07,22.012666666666664,0.011234866364235622,-1.944444971909068e-06,106.02600000000001,0.6441355964908849,2.75,0.0007220835292110269
S046,18173.0,18202.984375,N2,-0.15032812499999912,38.6859989173872,-154.52,114.75,269.27,0.39,0.0,390.625,390.625,0.0,0.07198059875565235,0.20912350152216008,65.2749458220797,0.07352725954319628,65.28399497579785,0.0,0,0.003222933333333333,0.001045549183709478,-4.40290484019771e-07,22.005333333333333,0.014313940369057055,1.0902780735347288e-05,107.576,0.9653793727511122,3.3499999999999943,0.001490764293284584
S046,18203.0,18232.984375,N2,-0.34288020833333366,36.58593480717442,-149.29,103.63,252.92,0.08499999999999999,0.0,390.625,390.625,0.0,0.08507936450096985,0.19741988090108858,65.27331076370146,0.08603455850355649,65.28399497579785,0.0,0,0.002998775,0.0009130587190181144,2.1201676758267345e-07,22.003999999999998,0.011718930554165938,-3.958334407100683e-06,111.89633333333335,1.5581623435601593,4.949999999999989,0.002721702127197841
S046,18233.0,18262.984375,N2,-0.02754166666666625,44.10722864861001,-125.99,153.94,279.93,0.024999999999999998,0.0,390.625,390.625,0.0,0.05581428468591172,0.2021987428181051,65.2772833948328,0.05793033764956182,65.28399497579785,0.0,0,0.0036178666666666663,0.0010282020548294754,1.158884862978751e-07,22.00666666666666,0.01043498389500012,2.569445141451697e-06,113.49066666666666,1.3372931200334839,4.950000000000003,-0.0019184032981779803
S046,18263.0,18292.984375,N2,0.34552083333333344,36.74346383116412,-103.31,102.42,205.73000000000002,1.0750000000000002,0.0,390.625,390.625,0.0,0.1015291077584267,0.19741988090108858,65.27019956890766,0.10209424551926105,65.28399497579785,0.0,0,0.0035751416666666663,0.0009907831355030333,3.194100258816261e-07,22.022666666666662,0.01314872194887736,7.638890961070627e-07,108.092,1.3100900732392413,5.200000000000003,-0.002295070067022045
S046,18293.0,18322.984375,N2,0.2236093749999996,45.42883926106662,-143.45,154.37,297.82,0.8,0.0,390.625,390.625,0.0,0.10642856726723118,0.2091235015221601,65.2687234324921,0.1070038606443189,65.28399497579785,0.0,0,0.004087533333333334,0.0009397995879737103,2.1879216004561631e-07,22.016666666666662,0.011925695879998888,-4.166667796948912e-07,104.13799999999999,1.3479673586552459,4.329999999999998,-0.002217708934925384
S046,18323.0,18352.984375,N2,-0.4266666666666669,44.52732664627295,-137.08,220.56,357.64,-1.11,0.0,390.625,390.625,0.0,0.06441510347391793,0.2157809420003434,65.27571944412038,0.06640320639635443,65.28399497579785,0.0,0,0.004279683333333334,0.0008981324418233402,-1.1592885089215793e-07,22.019333333333332,0.01436043948569243,2.7777785312984076e-06,104.54966666666665,1.2759584197335299,4.659999999999997,0.002114410295792721
S046,18353.0,18382.984375,N2,0.34585937500000025,41.20180518637067,-118.97,152.04,271.01,0.45,0.0,390.625,390.625,0.0,0.08507936450096985,0.2091235015221601,65.2728676070931,0.08923385137350147,65.28399497579785,0.0,0,0.0038420166666666674,0.00101940664917828,-2.4241803451010043e-07,22.028,0.011944315244779024,7.291668644658222e-06,105.162,0.8176405078027875,2.799999999999997,0.0011516669790763298
S046,18383.0,18412.984375,N2,0.0052135416666664845,38.22668702207355,-99.98,124.8,224.78,0.155,0.0,390.625,390.625,0.0,0.07198059875565237,0.21358993356949718,65.27477019348596,0.07360607490997789,65.28399497579785,0.0,0,0.004194275,0.0009052374823078196,2.282337858707101e-07,22.02533333333333,0.01231079020841266,-9.0277802267197e-07,105.68866666666666,0.5600162696049293,1.8899999999999864,-0.0006481946202784878
S046,18413.0,18442.984375,N2,0.14965104166666704,48.94808766303145,-143.51,153.98,297.49,-1.625,0.0,390.625,390.625,0.0,0.045595976308831845,0.18742764807756856,65.27884734554523,0.04793297755205522,65.28399497579785,0.0,0,0.004279683333333334,0.0008981324418233402,-2.1320535297454242e-07,22.029999999999994,0.010327955589886225,-2.7777785312983896e-07,103.94866666666667,0.5941870262991459,2.490000000000009,3.1041675087257895e-05
S046,18443.0,18472.984375,N2,-0.31588020833333297,49.987685224673754,-130.87,161.26,292.13,-3.1399999999999997,0.0,390.625,390.625,0.0,0.09636964965693297,0.1899835519196333,65.27150007672951,0.09696769308268095,65.28399497579785,0.0,0,0.0038953833333333337,0.0010112903406319846,-8.409095163057497e-07,22.026666666666664,0.014681810363696514,1.020833610252151e-05,106.66499999999999,1.1622528411093114,5.019999999999996,0.0006511460099679948
S046,18473.0,18502.984375,N2,0.29453645833333336,41.18334901052401,-135.83,141.39,277.22,0.89,0.0,390.625,390.625,0.0,0.09090593428863095,0.20453835214941968,65.27201025587961,0.09179954438019784,65.28399497579785,0.0,0,0.0032122916666666667,0.001145505458999311,4.488844533649234e-07,22.019999999999996,0.013416407864998453,-1.006944717595659e-05,108.03466666666667,0.5585859130180609,2.4799999999999898,0.00015347226385424085
S046,18503.0,18532.984375,N2,-0.3506041666666673,38.55625183105825,-135.81,142.53,278.34000000000003,0.16,0.0,390.625,390.625,0.0,0.11987768650679834,0.22219509383022437,65.2650839902091,0.12101687603513522,65.28399497579785,0.0,0,0.0041515833333333335,0.0009921767952615881,2.5712984405648984e-07,22.025333333333332,0.016069294390925186,3.4027787008402665e-06,105.20433333333334,1.8028970821677242,6.299999999999997,-0.001547604586481281
S046,18533.0,18562.984375,N2,0.3002656249999999,48.15597128388158,-141.71,181.87,323.58000000000004,-0.44499999999999995,0.0,390.625,390.625,0.0,0.07198059875565235,0.18483053424390916,65.2758239650483,0.07312558167454768,65.28399497579785,0.0,0,0.003863391666666666,0.0010714483833875943,3.297034314516688e-07,22.022666666666666,0.013148721948877068,-2.708334068015911e-06,107.81566666666666,2.1784347336766574,6.280000000000001,0.00352059123279927
S046,18563.0,18592.984375,N2,-0.3831041666666667,42.46271147344043,-145.85,177.22,323.07,-1.885,0.0,390.625,390.625,0.0,0.09090593428863095,0.2091235015221601,65.2718346272859,0.09185707146107835,65.28399497579785,0.0,0,0.0043650749999999995,0.0009571255243566541,3.099642767915247e-07,22.021333333333327,0.014313940369056399,-4.51389011335984e-06,108.364,0.7396828149055955,2.4499999999999886,-0.0010567363977692045
S046,18593.0,18622.984375,N2,0.20244270833333414,40.49262773721194,-128.27,152.38,280.65,0.77,0.0,390.625,390.625,0.0,0.09636964965693297,0.2157809420003434,65.27053411946405,0.09725786968161787,65.28399497579785,0.0,0,0.004333058333333333,0.0009947561367477068,2.879981249994913e-07,22.02466666666667,0.012578641509408864,-3.6111120906877963e-06,107.826,0.7280000000000004,2.9399999999999977,-0.00028291674341274274
S046,18623.0,18652.984375,N2,0.1688072916666665,38.031016297342056,-117.67,121.53,239.2,0.56,0.0,390.625,390.625,0.0,0.09090593428863095,0.2068462551362458,65.27192244158276,0.09182835441332658,65.28399497579785,0.0,0,0.0039487666666666674,0.0009583284382483677,-1.3117972308477727e-07,22.02466666666667,0.01146976702272326,-1.3888892656491927e-07,110.28199999999998,0.8842262153996557,3.6999999999999886,0.0011075697448919635
S046,18653.0,18682.984375,N2,-0.4035,41.60984362628832,-164.15,133.13,297.28,0.22,0.0,390.625,390.625,0.0,0.07880950133074059,0.20219874281810507,65.274172200039,0.08001208027557204,65.28399497579785,0.0,0,0.004226308333333334,0.0009147901471178452,-2.1182622933654235e-07,22.016000000000002,0.012806248474865906,-7.638890961072739e-07,111.84199999999997,0.6452565381303779,2.3799999999999955,-0.0002988889699677121
S046,18683.0,18712.984375,N2,0.11202083333333253,38.816240549483915,-144.29,114.81,259.1,0.45499999999999996,0.0,390.625,390.625,0.0,0.08507936450096985,0.23437268517375387,65.27181792065484,0.08656596454166973,65.28399497579785,0.0,0,0.004119558333333333,0.0009381609296546918,-1.4290042938922234e-07,22.02333333333333,0.011925695879998624,6.388890621986252e-06,110.25466666666667,0.455629479097021,1.8299999999999983,-0.00017243060233035278
S046,18713.0,18742.984375,N2,0.332020833333333,41.550116702598636,-139.38,145.88,285.26,1.28,0.0,390.625,390.625,0.0,0.09090593428863095,0.2200827456448041,65.27139283238556,0.09391159180884633,65.28399497579785,0.0,0,0.0039594416666666665,0.0009354014895205279,1.1401695801241253e-08,22.029999999999998,0.012649110640673249,-1.5419768413784837e-21,107.46266666666666,2.2799867446008446,7.469999999999999,-0.003837014929745803
S046,18743.0,18772.984375,N2,-0.06854166666666733,42.84158954142299,-135.61,148.37,283.98,1.9649999999999999,0.0,390.625,390.625,0.0,0.09090593428863095,0.2068462551362458,65.27192244158276,0.0918283544133266,65.28399497579785,0.0,0,0.0037246000000000002,0.00104581921955948,-5.195530923266851e-07,22.023999999999997,0.012806248474865738,-2.291667288321143e-06,108.10533333333333,1.2056028459746697,4.5,0.001974444980046925
S046,18773.0,18802.984375,N2,-0.050682291666666816,43.55632171399725,-125.92,170.55,296.47,-0.395,0.0,390.625,390.625,0.0,0.06441510347391793,0.2091235015221601,65.27598288701095,0.0662681521352567,65.28399497579785,0.0,0,0.003383033333333333,0.0010165750499703512,-4.811950090047224e-07,22.018666666666665,0.018390818965512104,3.6805565539709062e-06,109.29633333333335,0.8875940638727943,3.089999999999989,0.0012232294984889048
