participant_id,window_start_time,window_end_time,sleep_stage,BVP_mean,BVP_std,BVP_min,BVP_max,BVP_range,BVP_median,SDNN,median_nni,IBI_mean,x_std,y_std,z_std,mag_mean,mag_std,mag_max,movement_density,burst_count,EDA_mean,EDA_std,EDA_trend,TEMP_mean,TEMP_std,TEMP_slope,HR_mean,HR_std,HR_range,HR_trend
S047,9428.0,9457.984375,W,-0.4453437500000003,29.861811065140863,-99.6,65.16,164.76,4.19,42.189929248585436,890.625,887.3453776041666,1.6693195033206396,0.7590019659888899,2.0585146681257553,66.31302787870072,0.40057278821828224,68.00735254367721,0.075,46,0.25936375000000006,0.0014587055520220709,3.066233470657971e-07,31.793333333333337,0.017950549357115004,1.0902780735346463e-05,70.78833333333333,0.5522926961514365,1.710000000000008,-0.0009539238698795231
S047,9458.0,9487.984375,W,0.3837395833333336,92.77056189687195,-471.87,525.9,997.77,3.775,22.479040249812876,890.625,881.1360677083334,22.73458116076818,12.401835206656132,20.775490429931292,66.32086557775148,3.7844359797048934,97.90301323248433,0.06979166666666667,22,0.2386725333333333,0.01169482449129623,-1.2171665628164527e-06,31.837999999999997,0.02103964511741375,2.9583341358329896e-05,70.41766666666666,0.8051115174654713,2.530000000000001,0.0006854515748295272
S047,9488.0,9517.984375,W,-0.023390624999999894,21.062965225166632,-44.46,47.69,92.15,2.355,58.58701313991131,906.25,912.9231770833334,0.49975579974123363,0.4182664600433822,0.4830896925433895,66.46527978359485,0.48832191068799985,67.14908785679818,0.0875,71,0.2426014583333333,0.0014590644770756036,1.8701318007085029e-06,31.862000000000005,0.012220201853215313,5.972223842291496e-06,69.40799999999999,0.10931300624048924,0.37999999999999545,-0.00014645837306271036
S047,9518.0,9547.984375,W,0.03539583333333338,22.76766368187162,-57.85,56.68,114.53,2.025,50.36620436291496,875.0,882.9508463541666,0.5587985856952395,0.2790714234295586,2.1422277049675547,66.50617694050808,0.47466172989861105,68.8839603971781,0.0625,44,0.24560164999999998,0.00220402811782578,2.964611915313554e-06,31.876666666666665,0.01299572579307834,-5.6944459891616595e-06,68.27633333333333,0.7554181329274242,1.9500000000000028,-0.001313854523072516
S047,9548.0,9577.984375,W,-0.10717708333333328,24.286735260946624,-58.86,57.8,116.66,2.7800000000000002,52.354361121245,890.625,898.3479817708334,0.7059272861515791,0.4344524311481702,3.442839130142689,66.57550859559652,0.31883418520563445,69.7853852894716,0.035416666666666666,25,0.25212499166666663,0.0014504304906695423,1.2499042019054348e-06,31.870000000000005,0.015491933384829336,-2.041667220504302e-05,67.88766666666666,0.5599564467190484,1.3499999999999943,0.0009518405359810482
S047,9578.0,9607.984375,N1,-0.00032291666666674305,24.13529201017792,-51.75,43.44,95.19,3.85,77.00261838941796,890.625,904.3538411458334,0.0,0.22428271082497642,0.14627537173085564,66.4443634004627,0.05312539175730411,66.82065548915246,0.06979166666666667,51,0.253171275,0.001009958810731902,2.799408311471445e-07,31.866,0.015832456116050758,1.6666671187789974e-06,67.70066666666666,0.46477903949678606,1.289999999999992,-0.0007781252110799712
S047,9608.0,9637.984375,N2,0.08750000000000009,23.418535705362395,-49.6,45.01,94.61,4.66,66.19489157162793,875.0,872.6236979166666,0.0,0.05581428468591172,0.16015603827899286,66.42697171119312,0.034340651524063556,66.64833081180653,0.00625,6,0.25335275,0.0010360801067002476,4.748152329685427e-07,31.863333333333337,0.01299572579307834,2.7777785312983704e-06,67.29333333333332,0.2444494948973225,0.6600000000000108,-0.00037090287839162365
S047,9638.0,9667.984375,N1,0.0006562499999999508,23.23515348531192,-54.25,45.5,99.75,3.375,59.261239252468165,875.0,888.0452473958334,0.0,0.03225804701500421,0.14627537173085564,66.42614310351911,0.029081336479289562,66.4304147209695,0.0,0,0.25494335000000007,0.0011032047758689247,3.919228493714081e-08,31.863333333333337,0.013984117975601722,-3.8888899438177195e-06,67.93733333333333,0.4104788531567587,1.1799999999999926,0.0006609029570591778
S047,9668.0,9697.984375,N2,-0.21229687499999997,25.193637529422954,-53.74,105.18,158.92000000000002,3.1550000000000002,22.51182504437943,875.0,866.0319010416666,0.03225804701500421,0.04564354645876384,0.2052664892212614,66.42670240101,0.03926144399272587,66.88049042882386,0.003125,3,0.2549753666666667,0.001133609139969427,-1.5510941707612192e-07,31.851333333333336,0.014544949486181858,5.9722238422914844e-06,68.13833333333334,0.06753188547312741,0.269999999999996,9.767363760678329e-05
S047,9698.0,9727.984375,N2,0.17485937499999996,26.332130014984696,-66.81,56.76,123.57,6.425,27.142094176746397,890.625,898.6653645833334,0.0,0.0,0.15673535728170024,66.42620443870136,0.03210193945009167,66.64833081180653,0.0020833333333333333,2,0.25445228333333336,0.001075563094254462,3.0608211428008737e-07,31.845333333333336,0.011175369742828031,-2.4305562148861356e-06,68.18299999999999,0.2137623290791276,0.5400000000000063,-0.00034760426096035635
S047,9728.0,9757.984375,N2,-0.003265625000000109,23.168785167949785,-50.6,45.1,95.7,4.380000000000001,36.88690334664698,890.625,900.0895182291666,0.03225804701500421,0.0,0.2179449471770337,66.42124223440257,0.05436026870643524,67.39436178197698,0.0010416666666666667,1,0.2558081750000001,0.0012415251686433866,8.025477437466746e-07,31.832666666666668,0.01611072796479384,-9.72222485954306e-07,67.50866666666667,0.3264529913411053,1.0499999999999972,-0.0005854862699344272
S047,9758.0,9787.984375,N2,-0.07770312500000003,24.604303802582624,-53.01,49.26,102.27,4.449999999999999,31.365236163854394,859.375,868.3837890625,0.0,0.0,0.1899835519196333,66.42278227240288,0.03866772502731766,66.4304147209695,0.0,0,0.25657701666666666,0.0011899031962260087,6.252080689040969e-07,31.836666666666662,0.015776212754933475,2.361111751604206e-06,67.34100000000001,0.4056299627328668,1.1000000000000085,0.0007185071393519808
S047,9788.0,9817.984375,N1,0.2276354166666665,42.33692048162076,-195.86,285.71,481.57,5.15,76.30463857353983,937.5,926.953125,4.911910548287193,1.9576880031578916,7.592390924906147,66.42384515774101,1.352036535666865,79.78095010715278,0.030208333333333334,10,0.2626520666666667,0.004688432633857746,6.529067309317316e-06,31.824666666666666,0.017838784213679994,-2.0416672205044292e-05,67.39066666666666,0.4802355903327272,1.4500000000000028,-0.0007411113121504238
S047,9818.0,9847.984375,N2,-0.14014062500000007,25.451020975162105,-54.27,57.94,112.21000000000001,5.24,92.52577391096389,875.0,884.9934895833334,0.36985914877228,0.302757867592056,0.16598493384608404,66.42550666080415,0.3384743054719608,67.19374970932937,0.16354166666666667,125,0.2686840583333333,0.0015263683221721214,1.7530566821442736e-06,31.806666666666665,0.011642832797715072,6.597224011833629e-06,67.426,0.2022308911450807,0.6800000000000068,-0.00032208342070405295
S047,9848.0,9877.984375,N2,-0.03261979166666678,24.826994254432176,-54.74,48.49,103.23,4.545,45.19550522367797,890.625,895.41015625,0.2732186624299299,0.3197747009614738,0.0,66.33911684074279,0.24940286741690884,67.19374970932937,0.08125,65,0.27052021666666665,0.0012880593230601713,1.1727216722877801e-06,31.81133333333333,0.01359738536958047,-3.7500010172528002e-06,67.39933333333333,0.5188701400371986,1.4799999999999898,0.0008118752202352482
S047,9878.0,9907.984375,N2,0.3436979166666665,47.32321415313784,-273.26,441.56,714.8199999999999,3.08,60.298588893828246,890.625,913.1917317708334,5.4730041984816005,1.7773153424164458,9.710817815142496,66.40818616430539,1.6899512912973917,82.93370846646133,0.034375,14,0.2763177,0.017789620276816853,1.0952263387658258e-05,31.789333333333335,0.015040685563570983,-7.43055757122314e-06,66.82300000000001,0.43331397392652676,1.3799999999999955,-0.000770868264666953
S047,9908.0,9937.984375,N2,-0.24728124999999992,32.44160907827423,-190.0,142.04,332.03999999999996,5.165,73.19990777294763,890.625,858.1298828125,0.39886993145914407,0.29154759474226505,0.46315644105300846,66.44240100741489,0.21663726181189605,67.3349834781297,0.07083333333333333,53,0.27432128333333333,0.0024930565115380424,-3.972040139984853e-06,31.804,0.014742229591663675,8.125002204047733e-06,66.784,0.2769428340530469,0.8499999999999943,0.00035916676409688663
S047,9938.0,9967.984375,N2,-0.27417708333333335,23.964322323549542,-50.0,43.25,93.25,3.17,36.6241960129864,921.875,922.4202473958334,0.0,0.045595976308831845,0.11557806855349138,66.48353364655948,0.05740673702979845,66.49060083951716,0.0,0,0.26985830833333335,0.000934562168396108,-4.2757368369512153e-07,31.829999999999995,0.013662601021280214,1.3055559097103378e-05,66.61966666666667,0.046938494034453306,0.21999999999999886,-7.913196591036833e-05
S047,9968.0,9997.984375,N2,0.03921874999999995,20.686804467513788,-46.14,40.04,86.18,3.5599999999999996,33.955036424541696,875.0,889.3961588541666,0.0,0.05581428468591172,0.1356408400888169,66.48076661389241,0.06741979802580025,66.49060083951716,0.0,0,0.269441975,0.0012016371017803185,-9.732600296386794e-07,31.836666666666666,0.016599866130652858,-2.638889604732921e-06,66.03366666666668,0.19666355929748608,0.6500000000000057,-0.00023121534049895388
S047,9998.0,10027.984375,N2,-0.029848958333333363,20.3045618316452,-48.11,41.52,89.63,2.9299999999999997,34.55528608001054,890.625,902.587890625,0.0,0.1015291077584267,0.11557806855349137,66.48183908686939,0.06011068348008335,66.49060083951716,0.0,0,0.2696875083333333,0.0011094122242268209,6.027022034239933e-07,31.849333333333334,0.0141264134002789,1.7361115820617522e-06,66.464,0.2705870161950374,0.8299999999999983,0.0004600695692463024
S047,10028.0,10057.984375,W,-1.3037499999999997,141.4867052680363,-760.25,676.3,1436.55,4.295,29.496246125990407,843.75,841.5283203125,32.04197923287077,25.65040303773537,15.814629817863006,66.73146918911377,11.167222268572122,180.49099700539082,0.07708333333333334,27,0.30677726666666666,0.21248549339228368,4.160864409956731e-06,31.856,0.01800000000000047,1.8958338476111932e-05,67.32633333333334,0.2762786435627792,1.0300000000000011,0.0004842015202369585
S047,10058.0,10087.984375,N1,1.5473281250000008,174.2287423603685,-739.78,1094.24,1834.02,4.43,68.58444654767163,906.25,889.0869140625,19.53015830282318,11.504886444870936,9.016222298719711,66.36009420899705,6.967811462219214,139.3197760549449,0.034375,13,0.1538692583333333,0.017104915684044278,-2.3361798220973903e-05,31.899333333333335,0.040573664145874426,5.819446023070158e-05,69.46233333333333,0.45411219856868873,1.6500000000000057,0.0006328821161247043
S047,10088.0,10117.984375,N2,-0.17251041666666664,20.184813132595707,-44.15,38.69,82.84,2.6,76.76708498689098,890.625,891.4306640625,0.3944259519823996,0.3410547747430022,0.4083426338226542,65.88187097764641,0.3242192952572319,67.03730304837748,0.21145833333333333,158,0.13876211666666666,0.0017995774651444023,-2.0500218234651205e-06,31.936,0.013808210118138358,-1.180555875801808e-06,68.63133333333333,0.42826575342368417,1.4899999999999949,-0.0007302779758783584
S047,10118.0,10147.984375,N1,0.05772916666666661,33.78398084166492,-265.33,206.68,472.01,2.455,34.78081474934413,890.625,891.7236328125,3.477644221538083,0.9314334970221976,2.579718362844522,65.909494418629,1.504162163481008,90.64215354899729,0.0125,5,0.13501454166666665,0.0018245132862210764,-1.1798121690028684e-06,31.935333333333336,0.014544949486180642,-6.666668475116089e-06,66.536,0.46436767042219246,1.7000000000000028,-0.0005045140257470759
S047,10148.0,10177.984375,N2,-0.022953124999999876,39.035225585866286,-153.92,371.09,525.01,1.21,68.86711356691039,890.625,898.3561197916666,0.5672934263652473,0.282518359162531,0.7615367036733467,66.03133013766734,0.41319718906569364,68.9129886160802,0.05,24,0.1304452083333333,0.0021005105922760527,-1.8785549800767635e-06,31.910666666666668,0.01896195020443678,-2.3958339832448447e-05,67.743,0.4224464463100617,1.5,0.00022496533880353228
S047,10178.0,10207.984375,N2,-0.09307291666666669,15.81838281658979,-33.44,31.89,65.33,3.06,34.3201855280534,875.0,885.8968098958334,0.09090593428863095,0.0,0.4506168611531925,65.85773579604202,0.18340070536105016,66.49060083951716,0.2916666666666667,163,0.13019968333333332,0.0016832556746938067,5.84992780217227e-07,31.877333333333333,0.01412641340027776,-5.208334746184444e-06,67.35866666666666,0.04667142832850065,0.1600000000000108,6.604168458162247e-05
S047,10208.0,10237.984375,N2,0.19528125000000005,15.1067847417443,-34.99,41.88,76.87,3.08,74.98688053248925,875.0,868.45703125,0.19249988726547929,0.0,0.3781752147557473,65.8376358242396,0.20021007668042923,66.87301398920195,0.20833333333333334,139,0.12969787500000002,0.001738360897332604,-5.3801772407165e-07,31.863333333333337,0.01074967699773117,-5.972223842291496e-06,67.07966666666667,0.15003295934190305,0.519999999999996,-2.5868062572715303e-05
S047,10238.0,10267.984375,N2,-0.085359375,16.214640111126414,-35.48,33.09,68.57,1.75,59.47841984535523,875.0,871.3541666666666,0.1462753717308556,0.0,0.22838645595544604,65.77964848265653,0.13818646150925903,66.49060083951716,0.07708333333333334,64,0.130466575,0.0017350902553973987,-6.374825948032224e-07,31.862000000000005,0.016812693617224973,1.1805558758018652e-05,67.88700000000001,0.3368298284495231,0.9500000000000028,0.0005675348761759161
S047,10268.0,10297.984375,N2,0.08977083333333331,16.41716596373491,-36.83,34.84,71.67,3.0549999999999997,45.61025996865394,859.375,874.0641276041666,0.22838645595544607,0.0,0.11987768650679834,65.7888930953071,0.17584167382568644,66.49060083951716,0.06979166666666667,55,0.13063740833333334,0.001497548176719943,1.737520002582438e-07,31.876666666666665,0.01738453974720669,2.3194450736341387e-05,68.048,0.1663009320479001,0.5800000000000125,0.0001172222540207933
S047,10298.0,10327.984375,N2,-0.06733854166666665,14.90957052987743,-32.48,38.01,70.49,2.225,86.14340073373255,890.625,860.5224609375,0.18219044808935508,0.03225804701500421,0.1356408400888169,65.77548291207479,0.14582300923768504,66.49060083951716,0.05416666666666667,44,0.13196113333333334,0.0017098538140892453,1.2507186552513671e-06,31.886666666666663,0.014681810363696516,8.958335763437246e-06,68.28233333333334,0.17574002263444582,0.5499999999999972,-0.00031204869575973703
S047,10328.0,10357.984375,N2,-0.14092187499999972,107.21649260391595,-653.4,766.2,1419.6,3.665,110.05335090799053,984.375,956.2418619791666,7.6625396500696095,5.090263270689499,4.934244267672159,65.66907124764066,1.9872400808559851,88.02272433866155,0.03333333333333333,10,0.12117783333333335,0.00493732989299097,-1.1802290527965117e-06,31.87933333333334,0.01611072796479242,-1.2916670170537422e-05,68.20966666666666,0.4512315247064297,1.2900000000000063,0.00071593769421053
S047,10358.0,10387.984375,N2,0.15363541666666675,86.29938350562193,-565.59,619.46,1185.0500000000002,4.76,29.95569542743063,875.0,894.5475260416666,3.9480656304350132,0.8214147686901071,5.831070989868747,65.59419179407244,0.7865554965200799,74.67261881037788,0.021875,8,0.15013250833333333,0.03112950454231372,2.2559300607449176e-05,31.85733333333333,0.035207322470696495,-5.0069458026655596e-05,68.467,0.2390976090776872,0.7000000000000028,-0.00040725705491999103
S047,10388.0,10417.984375,N2,0.0036197916666667494,32.410646575290016,-80.01,84.84,164.85000000000002,2.63,78.39795009239988,890.625,908.8948567708334,0.08507936450096985,0.0,0.11987768650679835,65.73128810908175,0.07109984216545387,65.7419196555744,0.0,0,0.148926075,0.0022855430141161177,-2.9889706458796202e-06,31.78533333333333,0.01431394036905562,-1.4791670679163821e-05,67.80833333333334,0.5124391562799329,1.4000000000000057,-0.0008705905139405694
S047,10418.0,10447.984375,N2,0.018265625000000056,27.082320748934965,-60.62,71.6,132.22,3.3099999999999996,43.04247148025392,875.0,876.8229166666666,0.05581428468591172,0.0,0.09636964965693294,65.73586044957008,0.0538605110383798,65.7419196555744,0.0,0,0.1479971833333333,0.0016770111408064262,-4.134536711842646e-07,31.773999999999997,0.011999999999999745,-1.0277780565803969e-05,67.46433333333333,0.24672093997515124,0.7999999999999972,0.00044079873068541886
S047,10448.0,10477.984375,N2,-0.2470937500000004,113.27551404186849,-796.53,686.53,1483.06,0.835,41.593002529164764,921.875,901.3102213541666,7.003744038409424,1.466641512568388,2.588770320216402,65.54614931765153,1.2592231579287583,77.3692445355388,0.021875,9,0.2639976333333333,0.07071957292479612,8.93297642496105e-05,31.816666666666666,0.040770359603789,5.527779277283912e-05,67.948,0.08447484832777155,0.25,-8.812502390544474e-05
S047,10478.0,10507.984375,N2,0.276328125,23.723959768349182,-48.22,48.63,96.85,4.415,77.93633462659518,890.625,869.0592447916666,0.11987768650679834,0.0,0.3508360550171547,65.45599362191241,0.17194660458325647,66.37017402418047,0.15520833333333334,116,0.3001156583333333,0.001023211386565461,-6.040225162821458e-07,31.83733333333333,0.012092238098146007,1.1805558758018945e-06,67.59066666666666,0.24330958788250595,0.8100000000000023,-0.0004280556716730851
S047,10508.0,10537.984375,N2,0.1345729166666665,95.39589557757067,-1007.92,426.46,1434.3799999999999,2.2199999999999998,86.86485316651724,953.125,935.3678385416666,6.066917062140283,2.909587950196824,3.0238632434239743,65.7369405789664,2.5937540330782345,105.70241246064349,0.014583333333333334,5,0.2854566833333333,0.025507619921304344,-2.378172954148474e-06,31.84466666666667,0.012578641509410057,-6.666668475116718e-06,66.739,0.20110279295259215,0.6999999999999886,3.392362031348368e-05
S047,10538.0,10567.984375,N2,-0.07026041666666666,39.48839936238257,-150.53,126.81,277.34000000000003,-0.07,21.373107697502988,921.875,919.4173177083334,0.5170529469986609,0.25479558459784096,0.4963364044565831,65.67225135070477,0.29613205926067887,66.40783086353596,0.20208333333333334,86,0.2887453083333334,0.0017585887229813605,2.4779271044724137e-06,31.823999999999995,0.010519822558706402,-7.152779718093563e-06,67.18033333333334,0.4231507480266999,1.2600000000000051,0.0007257988079966383
S047,10568.0,10597.984375,N2,0.12285937499999987,32.53050785898613,-98.62,144.46,243.08,-0.5549999999999999,22.10625466597835,890.625,896.3948567708334,0.09636964965693294,0.03225804701500421,0.0,65.66925471042313,0.056146631520326055,66.40783086353596,0.0010416666666666667,1,0.29192654166666665,0.0011252788165297312,9.58805598634329e-07,31.825333333333326,0.01117536974282709,1.1805558758014368e-06,68.60033333333334,0.2900630199724799,1.1000000000000085,0.00021670144767292016
S047,10598.0,10627.984375,N2,-0.491760416666667,37.79561511886575,-95.41,133.26,228.67,-0.475,80.3268399364481,859.375,864.2415364583334,0.2617030727062426,0.2795007329547137,0.06441510347391793,65.69557183855885,0.2120514200606206,66.40783086353596,0.05520833333333333,38,0.29407272500000003,0.0012482566240060626,9.654935344763321e-07,31.84733333333333,0.01691810338726714,1.4722226215882854e-05,67.80366666666666,0.4789884016225114,1.2399999999999949,-0.0008251738349538386
S047,10628.0,10657.984375,N2,0.549338541666667,33.000204067076965,-74.98,111.81,186.79000000000002,-2.09,62.73337925423817,750.0,776.4241536458334,0.15925921720229852,0.20219874281810515,0.12401959270615269,65.68455200063903,0.16151411293679133,66.40783086353596,0.041666666666666664,30,0.29634695,0.00136173413245758,1.5154183798335478e-06,31.871333333333332,0.01359738536958047,1.0694447345498726e-05,66.33900000000001,0.2958417369698419,1.0800000000000125,-0.00035545148531127425
S047,10658.0,10687.984375,N2,-0.05403125000000036,32.52518690535367,-79.64,88.02,167.66,-2.885,137.39785147364015,890.625,951.8880208333334,0.13188915142607024,0.2068462551362458,0.13188915142607022,65.68956252346995,0.17416603705175704,66.40783086353596,0.04479166666666667,39,0.298588775,0.001207434418250103,7.720538118635452e-07,31.894666666666662,0.01431394036905562,1.4652781752598904e-05,66.60666666666665,0.23312848150513438,0.6300000000000097,0.00033916675867153945
S047,10688.0,10717.984375,N2,0.06882812500000017,33.685560128618796,-76.02,103.68,179.7,-1.205,28.104176288713372,890.625,889.0950520833334,0.1821904480893551,0.3247177593909654,0.20912350152216008,65.72409975891411,0.26418594519117516,66.40783086353596,0.109375,58,0.29924,0.0011307426762972993,7.646334539478685e-07,31.921333333333337,0.015216949614017447,1.5486115311988416e-05,66.845,0.34809720864532395,1.0499999999999972,-0.0004307987279727435
S047,10718.0,10747.984375,N2,0.009187500000000052,31.866650814472337,-67.36,89.8,157.16,-2.2,7.479828446631467,875.0,874.9674479166666,0.12401959270615269,0.2650647686834714,0.2263462809256845,65.69833021375716,0.21944731513416882,66.40783086353596,0.07291666666666667,58,0.3013650416666666,0.0011515549516185697,1.0090760115766212e-06,31.952666666666666,0.01526069752301247,1.3472225876797097e-05,66.62633333333332,0.13958231342910923,0.5,0.00024822923400315543
S047,10748.0,10777.984375,N2,0.0794791666666668,32.036084608147725,-78.31,92.04,170.35000000000002,-2.15,53.0433919315881,875.0,886.9547526041666,0.11987768650679834,0.2763853991962833,0.24206145913796356,65.70071442520685,0.23602404696518525,66.40783086353596,0.08229166666666667,56,0.3029664833333333,0.0012260853422127241,3.6333082772646336e-07,31.970000000000002,0.014605934866804119,5.555557062596741e-06,67.79066666666668,0.7483979927522232,1.8299999999999983,0.001290000349934992
S047,10778.0,10807.984375,N2,-0.5773437500000003,35.355812994862234,-83.34,99.01,182.35000000000002,-1.0,30.88912709995814,890.625,891.8782552083334,0.19249988726547926,0.39523529384405937,0.2986060642338367,65.75399371401879,0.3224551495051736,66.40783086353596,0.153125,94,0.3045570583333334,0.001304125705187408,1.2793438800303468e-06,32.001333333333335,0.018024674446128205,2.5069451244969386e-05,67.24566666666666,0.6671116015247287,2.4199999999999875,-0.0011795489310842363
S047,10808.0,10837.984375,N2,-0.06716666666666644,35.686249694871584,-82.09,88.24,170.32999999999998,-2.3,51.868003771756314,875.0,899.0234375,0.16232629604869597,0.39523529384405937,0.34655421854146995,65.74300332131149,0.3247013407591922,66.40783086353596,0.14791666666666667,97,0.305357675,0.000928111291481249,2.282337858707106e-07,32.03033333333333,0.016017351702311007,1.5312504153781397e-05,65.48433333333334,0.39896268274391467,1.1799999999999926,-0.0006719793489527303
S047,10838.0,10867.984375,N2,0.47808333333333325,35.182326581996,-83.4,88.66,172.06,1.39,93.02544668162665,812.5,789.599609375,0.15612494995995993,0.38349181506548774,0.34546761536197407,65.73380193716199,0.31883833828086894,66.40783086353596,0.1375,93,0.3066814666666667,0.001134694606001481,9.506512995473249e-07,32.06466666666667,0.017074997966489303,1.5833337628403228e-05,66.64033333333333,0.7168471865669062,2.6200000000000045,0.0012794795137476976
S047,10868.0,10897.984375,N2,-0.21522916666666655,37.79275033060771,-86.92,103.94,190.86,0.365,80.02517065800468,843.75,792.67578125,0.17950549357115014,0.41894688572127553,0.3781752147557473,65.75024468415319,0.34927158580349377,66.40783086353596,0.1625,103,0.30801615833333335,0.0010142713804815252,-6.456056438817611e-08,32.098666666666674,0.016878651868229122,1.2013892147865413e-05,67.89,0.12069244660154496,0.37999999999999545,-0.00014541670611347159
S047,10898.0,10927.984375,N2,0.0555208333333334,36.56309360115834,-87.2,106.56,193.76,-0.5549999999999999,60.69857499155298,750.0,778.5970052083334,0.15925921720229852,0.40232478717449166,0.3736070773739289,65.7386470219195,0.3355285295448303,66.40783086353596,0.15,93,0.30873164166666667,0.0013384012091287294,8.64558177234754e-07,32.12466666666667,0.01857118436957814,2.2361117176951164e-05,67.16766666666668,0.36835384558269,1.210000000000008,-0.00041725705763266517
S047,10928.0,10957.984375,N2,0.22218750000000018,36.28215320877254,-88.76,110.46,199.22,-1.705,52.986143064121244,875.0,894.82421875,0.1462753717308556,0.41197356981027583,0.4112552241309525,65.73073292190865,0.34447962984506103,66.40783086353596,0.146875,96,0.31042928333333336,0.0013189641212161785,5.115248783433438e-07,32.158333333333324,0.01157103663847266,1.170139206309418e-05,67.705,0.09590794197214943,0.2600000000000051,0.00014427087246931037
S047,10958.0,10987.984375,N2,-0.29404687500000004,35.265090303181594,-89.86,91.21,181.07,0.4,100.4709119812977,687.5,776.1149088541666,0.16532992583014122,0.4155075021885886,0.4126880358461529,65.73038151189574,0.35247406613639076,66.40783086353596,0.153125,94,0.31167827500000006,0.001431843444436231,1.7327420064946883e-06,32.181999999999995,0.017776388834632437,2.0416672205045068e-05,68.61866666666667,0.3492728955352185,1.1500000000000057,0.0003181945307602346
S047,10988.0,11017.984375,N2,-0.3746510416666665,37.992057168559086,-83.73,94.97,178.7,-2.4400000000000004,68.84994130291757,750.0,789.9820963541666,0.16827350421923892,0.4433096406576333,0.4596087840489997,65.72860788884235,0.3667151412349515,66.40783086353596,0.15104166666666666,99,0.31288455833333334,0.001183187656261909,1.5734487775197244e-07,32.216,0.014514360704717004,5.069445819619094e-06,67.394,0.3095006731279698,1.0600000000000023,-0.0004538195675508787
S047,11018.0,11047.984375,N2,0.31560937500000014,43.386259730226364,-110.19,129.07,239.26,-0.41000000000000003,109.09949951795232,687.5,755.1595052083334,0.24016912082368586,0.4706627640891087,0.4655853823563288,65.75159511682807,0.3800082359317852,66.40783086353596,0.175,111,0.3140054666666667,0.0010970237913960018,9.460887983096657e-07,32.25333333333334,0.018678567634830643,2.0347227741762572e-05,66.869,0.24402663789021029,0.769999999999996,-0.0004090626109653353
S047,11048.0,11077.984375,N2,-0.4893124999999999,38.85221613888124,-81.64,103.8,185.44,-3.795,96.9343639319867,812.5,786.376953125,0.09636964965693294,0.41689446897732874,0.47103494024388,65.69385118299766,0.3449034833423397,66.40783086353596,0.11875,87,0.31469945833333335,0.001157105043458544,-1.5514565840539453e-07,32.26933333333333,0.014126413400278202,4.236112260229854e-06,68.082,0.729293722263763,2.200000000000003,0.0010953475193542536
S047,11078.0,11107.984375,N2,0.41334895833333374,38.40502321858294,-88.47,124.22,212.69,-1.245,22.30987464758618,828.125,829.5817057291666,0.13188915142607024,0.47495887979908324,0.4938587696649721,65.74016382197547,0.3867953720328229,66.40783086353596,0.16354166666666667,112,0.315350825,0.001149686476555671,7.867430519593749e-07,32.302,0.019043809142780182,1.9861116498782977e-05,68.53233333333334,0.09827455870615175,0.3100000000000023,-8.489585636280599e-05
S047,11108.0,11137.984375,N2,-0.22438541666666675,33.04098570080228,-81.79,96.49,178.28,-1.95,48.35606158464991,812.5,841.8701171875,0.09090593428863096,0.4587107820808469,0.4977978850648122,65.70054408509705,0.3777215758806934,66.40783086353596,0.13541666666666666,89,0.31690985,0.0012019171882871227,9.862880279644256e-07,32.32533333333333,0.011469767022723037,2.5694451414524605e-06,67.92633333333333,0.4875071509447038,1.5300000000000011,-0.0008096182751785687
S047,11138.0,11167.984375,N2,0.5334479166666666,36.744299143815546,-93.25,120.71,213.95999999999998,0.255,13.552184788458302,812.5,819.3277994791666,0.16862135013758556,0.4732137007708275,0.4969426928032603,65.72193223316967,0.3687233000308232,66.52818951391959,0.12916666666666668,87,0.3176679416666667,0.0010825716088388355,1.884829070320402e-07,32.34966666666667,0.015807874268503868,9.96528048103222e-06,66.77533333333334,0.36574793991977,1.0300000000000011,0.0005102084717362396
S047,11168.0,11197.984375,N2,-0.0593802083333335,38.222072925607286,-83.49,94.41,177.89999999999998,-2.42,92.3787172326961,843.75,899.0804036458334,0.10679496678474859,0.4655853823563288,0.4990866223384697,65.70645516042462,0.3767739168782512,66.94027188471824,0.128125,93,0.31923718333333334,0.0012448866881724222,9.499299451849921e-07,32.382999999999996,0.012948616399703705,1.4479170594394181e-05,67.24,0.4258716551575928,1.5600000000000023,0.0001483333735713351
S047,11198.0,11227.984375,N2,-0.12081249999999984,38.54185213243102,-91.41,112.31,203.72,0.10500000000000001,90.0201585940501,843.75,866.943359375,0.15376848917736327,0.48385276506793773,0.4999902342796308,65.73104487745967,0.39993455803985234,66.94027188471824,0.15520833333333334,99,0.319909725,0.001210823624387551,-7.378250699395244e-07,32.40333333333332,0.01490711984999796,1.3888892656500979e-06,68.43699999999998,0.1275447633839439,0.5,-0.00013128475783549072
S047,11228.0,11257.984375,N2,0.42343229166666657,35.55688599713316,-80.42,107.94,188.36,-1.565,37.117040188284115,843.75,842.3909505208334,0.139283726964862,0.48246599621113195,0.49926595423236664,65.71352641332768,0.38208374939301953,66.40783086353596,0.12708333333333333,98,0.32114817500000004,0.0012080124148265165,4.892959226605683e-07,32.428666666666665,0.012578641509409993,1.1805558758019704e-05,67.94900000000001,0.27379250050601045,0.7600000000000051,0.0003869098271782324
S047,11258.0,11287.984375,N2,-0.39674479166666643,37.174381565376464,-86.17,100.3,186.47,-0.41000000000000003,43.937745749743605,843.75,854.0771484375,0.10152910775842672,0.47761978573151903,0.49607837082461076,65.69125971460103,0.39272183816053513,66.40783086353596,0.12395833333333334,87,0.3225470583333333,0.0010592787427917837,6.905381647510175e-07,32.45133333333333,0.011469767022722982,7.50000203450476e-06,68.131,0.10909781543795263,0.4200000000000017,-2.2326394945313527e-05
S047,11288.0,11317.984375,W,1.3247239583333326,157.19428178420793,-1189.4,736.64,1926.04,-1.875,36.06896794181937,812.5,839.3717447916666,12.899736047848679,11.482699424251614,10.995751823305318,66.08649607688524,7.194690955593411,162.83120094134293,0.035416666666666666,19,0.33452594999999996,0.030534313405536074,1.427219918408181e-05,32.504000000000005,0.054564946012374035,6.59027956550558e-05,69.02399999999999,0.18900793634130802,0.75,0.00018722227300951277
S047,11318.0,11347.984375,N1,-1.2036718750000013,182.10098302037275,-1147.81,819.59,1967.4,1.675,25.259745480773798,890.625,900.5208333333334,16.92674115038752,7.021549713080716,8.592887014750275,66.05690932498015,5.204699520435034,136.34148304899725,0.05,22,0.31032224166666666,0.013026821716491855,1.0448258259618656e-05,32.60833333333334,0.021615323782497375,-6.909724096605319e-06,72.51,3.5724473404096533,11.400000000000006,0.005966182173986049
S047,11348.0,11377.984375,N1,-0.15664583333333312,103.6522938100402,-428.8,585.19,1013.99,4.84,101.16787267989417,1000.0,975.927734375,7.576333479530554,9.666569627296697,13.636854512616313,65.9537224074043,1.6080010179485447,87.51571287488893,0.023958333333333335,9,0.31230816666666666,0.027126857786559475,-1.671240166894575e-05,32.63666666666667,0.03379677828169733,4.8541679834439376e-05,78.60900000000001,1.138303855157605,3.230000000000004,-0.002030035272904534
S047,11378.0,11407.984375,N1,-0.2517760416666665,66.51458706963152,-134.85,136.8,271.65,8.195,29.104446848506218,843.75,838.8427734375,6.553113326567254,3.5935403018529883,6.761958847597138,65.90835496830265,1.3743163290218967,79.61155694998057,0.017708333333333333,5,0.292343025,0.008954470859541342,-1.0219015358890882e-06,32.724333333333334,0.02108448613449106,3.302084229080958e-05,74.85566666666666,3.11657470452561,9.670000000000002,-0.0048821888243784795
S047,11408.0,11437.984375,N2,0.516619791666667,96.65677983679127,-444.65,432.36,877.01,12.594999999999999,59.47052649582286,843.75,862.6220703125,18.104533344004388,4.081040890295499,11.710238158738491,65.69078125248375,2.5286706201080524,101.23734488813898,0.026041666666666668,9,0.26724269999999994,0.01065182808613933,7.931290345944643e-06,32.760666666666665,0.020483055327650542,2.6666673900466133e-05,69.638,1.1395595640421785,3.1199999999999903,0.0019513894182371472
S047,11438.0,11467.984375,N2,-0.10684375000000006,41.37448551840961,-91.24,78.91,170.14999999999998,7.635,20.468400494387897,859.375,859.9039713541666,0.43007085172096937,0.36505326856349185,0.6234842731688498,65.86479736746118,0.2725822382573544,66.59579566308972,0.10729166666666666,71,0.271908325,0.0016847575550728382,-4.3208930992006056e-07,32.784666666666666,0.013597385369579818,1.208333661114764e-05,69.36866666666667,0.48442910271323997,1.6499999999999915,-0.0008236807789932654
S047,11468.0,11497.984375,N1,0.835197916666667,119.93283337005411,-1112.79,661.6,1774.3899999999999,5.279999999999999,52.127257581042265,859.375,841.162109375,9.783032485348038,3.9625688687933933,10.33521860952139,65.84461579711943,1.5916800965427227,79.98749902328488,0.040625,14,0.2878911,0.020529169949691912,2.4796561413997784e-05,32.78433333333334,0.031164438423021096,-3.58680652853919e-05,68.645,0.24229114717628408,0.8199999999999932,2.37152842109596e-05
S047,11498.0,11527.984375,N2,-0.9857864583333333,22.417509221454182,-54.49,64.3,118.78999999999999,0.23,63.5443827564515,828.125,823.7467447916666,3.110664340440622,1.8683109852216786,4.67009256224441,65.73866161772659,0.30996297096979586,66.71581521648372,0.0875,50,0.30546445833333336,0.0014574841960025506,-1.182885520531005e-06,32.78333333333333,0.012995725793077612,3.333334237557822e-06,68.10566666666666,0.48035183864422626,1.3999999999999915,-0.0007507293703150427
S047,11528.0,11557.984375,N2,-0.20121874999999986,27.436768978000092,-54.74,64.09,118.83000000000001,4.22,51.89376920466707,859.375,858.69140625,1.3661453369232797,1.3199836252140906,5.004815389535695,65.85779451716328,1.0417659694464683,84.02975663418287,0.007291666666666667,2,0.2855316333333333,0.007322340675327499,-9.126593187552406e-06,32.799333333333344,0.011234866364236255,1.1111114125195086e-05,68.09633333333335,0.10925454478215367,0.4200000000000017,0.00018260421620123167
S047,11558.0,11587.984375,N2,0.2979010416666667,29.42134384005582,-59.47,57.13,116.6,4.945,45.880077107675206,843.75,841.6178385416666,0.12074350109035084,0.49874408239318707,0.3600672680208519,65.71309820605568,0.34030500233537675,66.76825593049439,0.017708333333333333,15,0.2799587250000001,0.0012039796092023296,-1.01984641380382e-06,32.827999999999996,0.010770329614268976,7.222224181375615e-06,70.012,0.8007221740404106,2.3800000000000097,0.001321319802875382
S047,11588.0,11617.984375,N2,-0.07807291666666671,29.50490858235315,-62.02,57.01,119.03,3.2800000000000002,18.154826487977978,843.75,842.6839192708334,0.2510373443611306,0.4550056757124636,0.509415472148117,65.62570515237194,0.3213745280450877,66.76825593049439,0.24375,125,0.27733206666666665,0.0020786651435209316,-2.9873636575964808e-06,32.833666666666666,0.010159833769419232,6.597224011833445e-07,70.85666666666667,0.17483960903893922,0.5900000000000034,0.00031013897301947104
S047,11618.0,11647.984375,N2,0.09358854166666665,28.856741692935213,-54.84,55.76,110.6,3.665,38.32010645653837,843.75,844.0673828125,0.24782911619366543,0.3529390488770295,0.3776756397874887,65.60208248243634,0.2502145098741554,66.40030120413611,0.109375,69,0.2734565666666667,0.0014589376884873826,-1.4517486577009249e-06,32.838,0.009797958971133083,2.7777785312976305e-06,71.10666666666667,0.10662499185879942,0.29999999999999716,-0.00013263892486950027
S047,11648.0,11677.984375,N2,-0.004479166666666678,28.74092826694015,-54.69,59.2,113.89,2.325,43.320937584526575,843.75,840.3483072916666,0.13615185047912085,0.22838645595544604,0.3411820114404562,65.60140909090907,0.18518086795816138,66.40030120413611,0.053125,42,0.27059492500000004,0.0010446792184086939,-3.055723485168017e-07,32.848000000000006,0.015999999999998415,4.097223333664615e-06,71.15666666666668,0.029814239700000272,0.10000000000000853,3.909723282802724e-05
S047,11678.0,11707.984375,W,1.492557291666667,56.454195897646464,-305.65,217.56,523.21,2.55,30.151313373279123,843.75,849.3489583333334,21.804150120025255,11.450609328461763,23.096871946360988,66.11849723649439,7.383437987890081,139.08270920570968,0.065625,23,0.2796700833333333,0.014597834344851372,1.5734986473249375e-05,32.85466666666667,0.017269111795982887,-7.569446497788342e-06,70.99833333333332,0.09198127828833282,0.38000000000000966,-0.0001319097580050361
S047,11708.0,11737.984375,N1,-1.1735104166666661,203.70765006772444,-1137.69,884.27,2021.96,7.35,14.860837147565206,843.75,837.7278645833334,17.7013789959815,10.798930500591121,11.541994580179324,66.39610385928012,6.733242827520396,142.47104969080561,0.05520833333333333,18,0.3013541,0.01414735377340936,9.416464359935003e-06,32.793,0.057570246945218215,-9.052085788868858e-05,71.88933333333334,1.0731509161757675,2.8699999999999903,0.001825278272916198
S047,11738.0,11767.984375,N2,-0.48340625000000015,36.98555556961791,-97.19,83.25,180.44,5.87,26.957719445056146,843.75,848.3561197916666,0.49115439414596385,0.17184343144431086,0.21147629234082535,65.77022678448427,0.32141932763133846,66.85805860178712,0.421875,128,0.30647861666666665,0.0011361253685467662,9.45288884898232e-07,32.68266666666666,0.030543229837215115,-4.708334610550999e-05,72.914,0.12750424829523702,0.37000000000000455,-6.972224113558988e-05
S047,11768.0,11797.984375,N2,-0.00418750000000004,31.90902889900198,-81.58,59.27,140.85,5.265000000000001,25.990749172443927,875.0,875.6673177083334,0.43597825625890513,0.07880950133074055,0.4054198248421012,65.91174231003833,0.3138083094881684,66.37770710110436,0.003125,3,0.30860350833333333,0.0011879188383880624,1.3673955532214607e-06,32.631,0.018681541692268325,-2.2951395114852655e-05,71.33366666666667,1.5391285052118149,4.049999999999997,-0.002668160446007065
S047,11798.0,11827.984375,N2,-0.15209374999999997,31.126693886162688,-76.35,64.24,140.58999999999997,3.84,27.71487199505439,859.375,857.0556640625,0.32425127430572864,0.05581428468591173,0.42163187438807326,65.98610425395644,0.2534831736545862,66.73829485385434,0.004166666666666667,3,0.31114453333333336,0.0015273748826736121,1.709414092180476e-06,32.59066666666668,0.013148721948876965,-1.42361149729032e-05,69.44766666666668,0.13627627167714138,0.37999999999999545,-0.00013802087077389283
S047,11828.0,11857.984375,N2,0.21379687499999994,31.54983996608895,-82.46,83.11,165.57,4.039999999999999,23.53135144584891,843.75,850.9114583333334,0.2957874817753449,0.08507936450096985,0.5006766255112508,65.94356883675461,0.24558584149306795,66.61080993352356,0.0020833333333333333,2,0.3135464,0.001118381392906718,9.296148355074857e-07,32.565333333333335,0.016069294390926737,-8.680557910308457e-06,69.65233333333332,0.3137056298860805,0.9300000000000068,0.0005568404288304124
S047,11858.0,11887.984375,N2,0.25155729166666685,139.9220784762967,-1201.49,979.49,2180.98,6.655,43.940100843548926,875.0,864.4694010416666,5.427284365278571,1.6645611700652183,3.8747558166791474,65.80857859868493,1.4378599215642605,86.82165628459296,0.029166666666666667,10,0.31103771666666663,0.0038129740911422684,2.694510279543888e-07,32.63666666666666,0.08367928191746249,0.00011125003017850243,69.99,0.23820159529272644,0.6700000000000017,-0.00040645844359224183
S047,11888.0,11917.984375,N2,-0.9439166666666667,84.02926989654986,-667.92,742.78,1410.6999999999998,3.545,44.3309532795832,890.625,902.1565755208334,7.962300222070811,1.1913297163487342,4.129353237460101,65.86346922745484,1.2695489976535939,86.40023148117139,0.01875,8,0.2861939333333333,0.07547731774113038,-6.784459088666202e-05,32.684999999999995,0.015000000000000962,8.02083550912484e-06,69.167,0.38473497371567356,1.4099999999999966,-0.0006576043450532617
S047,11918.0,11947.984375,N2,0.5520520833333334,60.59727506986697,-356.33,357.26,713.5899999999999,10.190000000000001,44.54623559512,890.625,899.3326822916666,0.6503070855800016,0.17918786211837998,0.4377181995556299,65.50990281872524,0.3469020243667244,66.2872536767062,0.0020833333333333333,2,0.16099046666666667,0.0022607891724400644,-2.7946400810113082e-06,32.670333333333325,0.017792008193444005,-2.2534728335160244e-05,67.86933333333333,0.12635751747411805,0.45999999999999375,7.5694464977875665e-06
S047,11948.0,11977.984375,N2,0.11006249999999994,37.9018701110217,-121.92,92.72,214.64,5.66,37.545408907036496,921.875,914.0543619791666,0.46040723972249703,0.2829788683463052,0.5880611976845795,65.57936555678411,0.338410258432022,66.2872536767062,0.004166666666666667,3,0.15959199166666668,0.0015671887117587031,1.315124054666905e-07,32.65766666666666,0.011742609969205156,9.618058164620232e-06,67.21333333333334,0.30989603991589737,0.9699999999999989,-0.000553819594677624
S047,11978.0,12007.984375,N2,-0.012020833333333295,42.65124788839204,-97.81,132.57,230.38,4.965,45.349210725070776,875.0,874.0152994791666,0.36101076998015813,0.4976986970603355,0.3410547747430022,65.43667765310308,0.37855126101549214,65.88626564011653,0.37604166666666666,146,0.16063816666666667,0.0016838406265307795,3.878330045119902e-07,32.652666666666654,0.00997775303139584,-6.388890621985634e-06,66.73366666666666,0.06877418766433449,0.21000000000000796,0.00010024308274823433
S047,12008.0,12037.984375,N1,0.7250260416666665,102.71778135026163,-613.71,579.09,1192.8000000000002,5.975,38.03027919678504,921.875,932.1533203125,4.805364366279454,2.2862663643785885,3.1337860862501445,65.42372047666896,0.7453515886399481,71.56116265125938,0.05416666666666667,25,0.17004405833333333,0.02153111486248674,1.3253434367793607e-05,32.65599999999999,0.018726095873584075,1.1666669831453253e-05,66.80733333333332,0.038378234572330666,0.12999999999999545,2.7916674239547015e-05
S047,12038.0,12067.984375,N2,-0.5979270833333336,38.09896147117639,-126.67,123.99,250.66,2.56,31.11593948846753,937.5,937.0279947916666,0.398661769671011,0.48789046862487484,0.36940267098835833,65.88680456567369,0.322465695414894,66.76825593049439,0.18333333333333332,103,0.166200525,0.002583595701609485,-3.331422561692321e-06,32.64199999999999,0.011661903789688281,-9.027780226718107e-07,66.31766666666667,0.34956814627321176,1.1000000000000085,-0.0006256598919433317
S047,12068.0,12097.984375,N2,-0.4186614583333333,45.832169644279944,-141.69,114.2,255.89,0.525,32.062889124851566,906.25,905.2897135416666,0.40686251900980014,0.489188670714639,0.5551799945863404,65.83749483187334,0.36558072029278604,66.91038783328041,0.04479166666666667,33,0.16395843333333335,0.0017484506509732756,6.838717132898424e-08,32.63733333333333,0.013888444437331742,-1.3888892656427674e-07,64.97999999999999,0.3645270908999771,1.2399999999999949,-0.0004848612426381414
S047,12098.0,12127.984375,N2,0.23451562500000003,38.42657268895507,-115.25,117.5,232.75,2.255,44.522033540753085,890.625,884.7412109375,5.003913399086315,0.8079674590789877,2.7319094042547523,65.69982710003394,0.4747919112395852,68.33739825307956,0.265625,95,0.16972371666666666,0.021643784748815433,1.5163498036973208e-05,32.64099999999999,0.011357816691598289,9.756947091183791e-06,66.23533333333333,0.4516837635140585,1.4300000000000068,0.0007638196516437892
S047,12128.0,12157.984375,N2,-0.008437500000000172,79.79805018540195,-497.11,509.28,1006.39,2.9299999999999997,29.787339649879623,890.625,887.9069010416666,5.0086763912942445,1.5078494706175634,3.009065440695647,65.9150008665193,1.3385915857441886,78.21125238736431,0.022916666666666665,9,0.17608709166666667,0.0033109053645889526,-4.59961257584977e-06,32.70666666666666,0.03645392830531277,2.125000576443384e-05,66.82366666666667,0.505123637230421,1.2999999999999972,0.0008187154998685724
S047,12158.0,12187.984375,N2,-0.22599479166666672,33.22051266176351,-84.68,66.16,150.84,6.045,39.50586266877867,890.625,906.3313802083334,0.21809425523536072,0.4999609359740019,0.6243738182615889,65.79563828714058,0.34403108545492006,66.94774081326419,0.11354166666666667,83,0.17325798333333337,0.0013882871219800183,3.3834123761426865e-07,32.728,0.011944315244778647,8.263891130612615e-06,66.75066666666667,0.3186004115223654,0.9199999999999875,-0.0005477779263720453
S047,12188.0,12217.984375,N2,0.47112500000000007,36.63255432878032,-88.44,76.14,164.57999999999998,8.865,48.03564186730005,906.25,920.4182942708334,0.4115189828718584,0.5202402873646198,0.46240497334587566,65.8042742833886,0.3332081980247037,66.65583245298194,0.19791666666666666,98,0.17326859166666667,0.0015332409981030017,-6.711553469930957e-07,32.73733333333334,0.013148721948877925,-9.027780226712664e-07,66.49133333333333,0.3394086360454342,1.039999999999992,-0.0005097918049565433
S047,12218.0,12247.984375,N2,-0.11319270833333299,62.95827441617871,-342.77,376.3,719.0699999999999,4.285,83.91257674432194,859.375,836.9954427083334,8.525578090125816,1.9557562831009616,3.858430074381145,65.84114988191173,1.1837717520565458,82.63776376451628,0.026041666666666668,12,0.16919001666666666,0.011023142786869913,-2.4256143732677853e-06,32.760666666666665,0.01691810338726662,-1.3888892656486877e-07,65.247,0.3373045112851791,1.1299999999999955,-0.0005101043050413159
S047,12248.0,12277.984375,N1,0.1277604166666667,82.92368091092918,-858.3,367.27,1225.57,6.315,114.6743863468048,984.375,934.2610677083334,6.793205347175137,1.3313119443074022,5.092796753851626,65.85117839851465,1.0889651939632763,77.34339015067803,0.03229166666666667,13,0.16974520833333334,0.006570630274050117,5.66607575577142e-07,32.76266666666666,0.0174992063312098,1.4791670679165636e-05,65.01433333333334,0.61232716382303,2.219999999999999,-0.0007962849382283373
S047,12278.0,12307.984375,N2,-0.38548958333333333,32.02600136135962,-85.33,69.15,154.48000000000002,4.154999999999999,47.73498590261931,890.625,897.0052083333334,0.22196056644268045,0.44456595561163803,0.5664205577694801,65.85033469275041,0.2941867650910283,66.7757440991862,0.014583333333333334,11,0.16564543333333331,0.0016996824151064875,-4.5207737957828377e-07,32.781333333333336,0.014313940369055063,4.097223333664666e-06,63.30266666666667,0.39161999721952656,1.2899999999999991,0.000620139057112374
S047,12308.0,12337.984375,N2,0.5187343750000006,152.80023335944313,-966.53,810.17,1776.6999999999998,3.1799999999999997,17.538518673008927,1015.625,1009.9202473958334,13.420489717995888,3.3122222105743786,6.343477262199468,65.99275372674126,3.7077055656670908,105.64563407921787,0.03958333333333333,18,0.1623783583333333,0.024372083655894723,-9.136436940222707e-07,32.79,0.014605934866803795,-4.583334576640606e-06,65.778,4.004804115059812,12.830000000000005,0.005944515501441921
S047,12338.0,12367.984375,N1,-0.1979947916666666,43.472986540374194,-101.4,175.53,276.93,4.915,102.62665607016037,921.875,980.615234375,4.940504426106204,0.6003435069931954,3.9834155979998984,65.76799805922977,0.5651456577610712,71.95137246779939,0.18020833333333333,86,0.1705032333333333,0.015694273962039644,1.1505918919791374e-05,32.76533333333334,0.013349989596334632,8.680557910307591e-06,80.34533333333334,0.9568724517347584,4.450000000000003,0.0007860418798941712
S047,12368.0,12397.984375,N2,-0.2632239583333328,113.76295463764706,-860.77,510.67,1371.44,3.56,127.9660073217888,906.25,994.3684895833334,7.126826033063776,1.8287700666287225,2.3191449199483465,65.79484932935605,1.4927915887139955,81.04936767180853,0.019791666666666666,5,0.175232925,0.0017944776592019795,-5.921540234792831e-07,32.77666666666667,0.025862886321694718,-2.173611700741058e-05,78.70133333333334,3.149267357479972,10.0,-0.004657570707891357
S047,12398.0,12427.984375,N2,0.21884895833333354,40.102733287952915,-106.3,112.76,219.06,6.13,89.45580764886556,953.125,937.4430338541666,0.7412503220441495,0.36505326856349185,0.4739743587034359,65.75067092937444,0.38092738211837524,66.85805860178712,0.178125,90,0.174966,0.001787329838054525,9.098969482142351e-07,32.77066666666666,0.0131487219488773,1.1180558588476322e-05,66.13033333333334,1.3074363804364988,5.680000000000007,-0.002004271377026743
S047,12428.0,12457.984375,N2,-0.21260937500000002,51.52657031625281,-213.22,233.72,446.94,6.98,76.44124712405934,875.0,860.7421875,0.432691832858239,0.18652524404666157,0.4568809849129202,65.88619601535856,0.341271581612809,66.49060083951716,0.265625,140,0.17712245000000001,0.0015283780937647609,1.898455376100104e-07,32.79466666666667,0.014313940369055944,1.0069447175955791e-05,65.848,0.3764961265847674,1.2800000000000011,0.0005534029278979283
S047,12458.0,12487.984375,N2,0.36484374999999997,44.3419603805724,-105.01,103.28,208.29000000000002,7.8149999999999995,52.05385963636216,890.625,904.6630859375,0.5044840168567175,0.30931712421612434,0.28103965899950056,65.80145009874771,0.3135786483206552,66.49060083951716,0.11354166666666667,72,0.17807269999999997,0.0016389893257736583,1.2595506888972118e-06,32.809333333333335,0.01314872194887717,-9.027780226722787e-07,65.96266666666666,0.5487618386472913,1.6700000000000017,0.0007349307549182823
S047,12488.0,12517.984375,N2,-0.5498958333333335,43.027033300898744,-121.03,130.77,251.8,7.825,42.97020187236999,890.625,885.205078125,0.45705194931758036,0.28772447456531897,0.2840810446519717,65.79291935125961,0.32128114165143223,66.85805860178712,0.08645833333333333,54,0.17889486666666662,0.0015220752386863811,5.586325300109925e-07,32.827999999999996,0.009797958971132503,4.097223333664023e-06,66.50733333333332,0.31147962301819165,0.8499999999999943,-0.0005213890303247132
S047,12518.0,12547.984375,N2,0.39907812500000006,43.857790825316656,-103.86,83.81,187.67000000000002,8.245000000000001,32.294774675003346,859.375,874.0641276041666,0.45936318956851074,0.4405535797121869,0.43119338396478213,65.74467272882661,0.3866084748359347,66.85805860178712,0.15208333333333332,105,0.17971706666666662,0.0016436378085075618,8.452693265162e-08,32.830333333333336,0.009122621455603117,6.840279633323218e-06,67.62100000000001,0.5227960086560203,1.6199999999999903,0.000817187721676355
S047,12548.0,12577.984375,N2,0.11539062499999986,44.53918714240018,-106.63,82.25,188.88,10.27,28.207272418087534,875.0,884.5865885416666,0.3983350222244531,0.4609348516873073,0.36795317627458457,65.71954610043706,0.38134894675944775,66.85805860178712,0.10520833333333333,80,0.18121179999999995,0.0017087323693311372,9.942563460981836e-07,32.85366666666667,0.01940503943710247,1.3506948108438665e-05,68.36233333333332,0.2199042721024044,0.6500000000000057,0.0003451737047454696
S047,12578.0,12607.984375,N1,0.10776041666666743,228.71103646392086,-1031.97,1020.83,2052.8,5.795,44.07061310514408,953.125,917.041015625,19.872950382392688,19.137819664033195,14.449404926652688,66.12307805330587,5.116864152625034,97.41149829460586,0.07291666666666667,34,0.2335615583333333,0.18048919169148772,-6.923293523028843e-05,32.961333333333336,0.0994898096400944,0.00014736115108538144,68.552,0.4610379593916311,1.6199999999999903,0.000644930730504213
S047,12608.0,12637.984375,N1,-0.47592187500000005,47.913310521061334,-166.65,290.49,457.14,2.755,2.1763082338259676,859.375,859.6842447916666,2.8075295585660753,0.9829133769550713,2.9122718004902213,65.71865637408156,0.5897352954702769,69.99285677838846,0.04479166666666667,27,0.18815140833333335,0.025331262155189396,1.5241840289127681e-05,33.00033333333333,0.015380362660078644,-3.5069453957637424e-06,71.01899999999999,0.9043574145952092,2.9299999999999926,-0.0009482988683536411
S047,12638.0,12667.984375,N2,0.3698489583333331,31.133816872495782,-86.38,78.14,164.51999999999998,4.01,0.0,859.375,859.375,0.4833647619092185,0.2717113172662404,0.11178398687746927,65.63863152563526,0.27051144500552343,66.49060083951716,0.051041666666666666,23,0.18516190833333335,0.003219925415792096,-1.652184692975454e-06,33.016666666666666,0.018318175552045166,1.9375005255806024e-05,69.28066666666669,0.571004572855789,2.269999999999996,-0.0005186806962566989
S047,12668.0,12697.984375,N2,-0.21285937500000002,70.62769613512269,-565.28,313.22,878.5,2.335,24.945942396438767,859.375,860.0911458333334,5.849794853359294,1.3614850322554248,2.4265403094249,65.4325097587501,1.2171517316008,84.63450832845902,0.027083333333333334,11,0.1943757916666667,0.02754730199822838,-2.1057484661861068e-05,33.04766666666667,0.015849991237291215,2.0104172120271563e-05,65.974,1.0728920417886099,3.280000000000001,0.0008293752249824292
S047,12698.0,12727.984375,N2,0.2972760416666666,37.10622708896672,-105.41,105.8,211.20999999999998,3.425,50.45581054680937,906.25,919.6451822916666,0.6536281953131561,0.5743958178430232,0.4782498021577102,65.25790596442802,0.3377017488896217,66.2117814289874,0.1125,68,0.18419028333333334,0.0015496851087846543,-5.836247242905629e-07,33.082666666666675,0.015040685563572364,8.958335763438022e-06,67.20266666666666,0.7086133564144049,1.9299999999999926,-0.001222986442867415
S047,12728.0,12757.984375,N1,-0.4852916666666666,52.705500387158494,-356.85,287.27,644.12,3.3099999999999996,58.82252205347662,921.875,924.7884114583334,5.952878840784142,1.4075961920702098,2.2608956865710446,65.11473133177996,0.712896853298919,69.58448102845921,0.04479166666666667,23,0.1796636,0.011639737489451097,-8.946771958217217e-06,33.09966666666667,0.026518337470930565,1.746528251553777e-05,67.02633333333333,0.5178447858405273,1.8100000000000023,-0.00012468753382365987
S047,12758.0,12787.984375,N2,-0.04889583333333339,32.168403942662685,-79.82,86.28,166.1,4.035,65.37369136501414,875.0,906.3639322916666,0.6780209853663988,0.47999927661982533,0.2341874249399399,64.79755488154588,0.2936943531139898,65.81033353509159,0.234375,105,0.16595500833333332,0.0018207211917984308,-1.6157450129516657e-06,33.18333333333332,0.017950549357116413,1.145833644160668e-05,65.87833333333333,0.5681143273047149,1.7199999999999989,0.0008489932858597236
S047,12788.0,12817.984375,N1,0.048161458333333344,61.17758010671487,-291.01,605.75,896.76,3.8,41.51615854562622,921.875,921.1507161458334,4.513448148888866,2.495488768299375,4.838414960666068,65.1878047846874,1.1342687894938375,76.97402159170326,0.026041666666666668,11,0.175499775,0.0390455425214075,5.527521247699995e-06,33.21966666666666,0.016428295373801468,4.20139002858947e-06,65.71133333333334,0.6231999857366999,1.7199999999999989,-0.0008738196814832032
S047,12818.0,12847.984375,N2,0.06294791666666667,31.490054345204836,-79.19,84.09,163.28,4.345000000000001,34.3709153339815,921.875,901.1393229166666,0.5188618938894584,0.46378855784601764,0.35168246410015325,65.47778291720451,0.37157670465290327,66.06814663663572,0.19479166666666667,119,0.17503008333333334,0.0015291606062550252,2.454805353408574e-07,33.220333333333336,0.013287420951995104,1.2465281159200607e-05,66.338,0.43862968435800254,1.480000000000004,-0.000570277932475568
S047,12848.0,12877.984375,N2,0.14559375000000016,33.30867710649825,-98.84,88.27,187.11,4.025,32.10995213922459,906.25,921.6227213541666,0.4606758320361751,0.4198007133020249,0.499995659703384,65.53736955816689,0.37508851789972375,66.4981202741852,0.284375,145,0.17490198333333334,0.0016686156436965648,1.3649396063746807e-07,33.24733333333334,0.016110727964793556,1.6666671187791577e-05,66.239,0.8922867625750506,2.280000000000001,0.0014631601191298046
S047,12878.0,12907.984375,N2,-0.1986562500000001,78.25511817837223,-628.86,329.85,958.71,5.6899999999999995,38.89639484917611,937.5,925.2360026041666,6.62665851554139,1.1200193566965706,1.8685711545783377,65.51071569544594,0.7028838717171821,71.17583859709698,0.028125,13,0.19771750000000002,0.04434400314172519,-2.613965813250275e-05,33.24,0.015275252316520459,-1.1319447515041855e-05,66.71766666666666,0.20129055836995663,0.7600000000000051,-0.0002003125543382565
S047,12908.0,12937.984375,N2,0.4871770833333333,34.46223233709827,-188.06,94.81,282.87,6.135,42.995067205071805,937.5,930.8268229166666,0.514957480377965,0.5842849380986035,0.5182843877614125,65.44473096475866,0.3975201676564206,67.68308503607086,0.1875,113,0.18140396666666667,0.0017042940226250753,-6.778118158126673e-07,33.239,0.017194960502039645,1.0381947260727986e-05,65.789,0.9622693663072379,2.3000000000000114,-0.0016442712793704644
S047,12938.0,12967.984375,N2,-0.43484895833333337,33.2243046120811,-185.19,206.6,391.78999999999996,3.495,41.87214096709523,921.875,922.55859375,1.7177977159885724,0.6388873792252695,1.270423004111229,65.33211494934994,0.513531477379965,70.24243731534378,0.06354166666666666,37,0.19687415833333333,0.032630520374080214,2.1817454486071646e-05,33.22633333333333,0.01559558342038551,7.187501949735329e-06,64.80966666666666,0.18467057757591654,0.710000000000008,0.00011961808800404111
S047,12968.0,12997.984375,N2,0.27353124999999995,29.4050992907881,-75.11,60.78,135.89,2.725,3.692581554795826,937.5,936.572265625,0.20036587627388056,0.49895615865914406,0.3950526841623645,65.48810697430937,0.36016651900294916,66.73829485385434,0.04791666666666667,33,0.19299855833333332,0.0023258984170847247,-2.7459549549573983e-06,33.25266666666666,0.011234866364236113,7.222224181376972e-06,65.27833333333334,0.3953317875180566,1.1199999999999903,0.0006739237939246391
S047,12998.0,13027.984375,N2,0.07425520833333349,41.37680294243324,-170.45,238.06,408.51,4.455,41.897148993099755,921.875,890.234375,3.941127077231701,1.258717863431763,1.6861102173139677,65.51809636826863,0.7697986392106188,77.68526243760782,0.026041666666666668,15,0.18849296666666668,0.012412199674066192,-1.2082787565860343e-05,33.248666666666665,0.012578641509410043,-1.250000339084859e-06,66.91133333333333,1.478807477515432,4.280000000000001,0.0026014590390242625
S047,13028.0,13057.984375,N2,0.0004843750000000036,28.445346895859743,-84.46,61.47,145.93,4.76,33.54886528625482,984.375,964.8518880208334,0.4752455049030507,0.4770503536635892,0.6063886940435885,65.60413683393628,0.339025968765814,66.29479617586888,0.20729166666666668,114,0.18261033333333332,0.0019994619581833115,6.624745720688424e-07,33.256,0.014742229591665747,1.0486113955652593e-05,68.89633333333335,0.6716868483320351,2.0799999999999983,-0.0011366322527756759
S047,13058.0,13087.984375,N2,-0.048531250000000116,27.741259526821057,-72.66,64.16,136.82,1.7149999999999999,42.912912019353655,890.625,906.5511067708334,0.1532312556508408,0.3432746081451732,0.3781752147557473,65.59417205432048,0.20002293585886038,66.29479617586888,0.11458333333333333,47,0.182087225,0.0015477512960340271,2.6740523746887045e-07,33.28066666666667,0.016110727964792203,1.5972226554964766e-05,65.77366666666666,1.1809952958792378,3.6500000000000057,-0.0021148269625724174
S047,13088.0,13117.984375,N2,-0.2877083333333331,35.114308688113134,-147.07,126.96,274.03,1.9449999999999998,74.13931896049563,921.875,918.26171875,0.3236198660594453,0.42809331796804406,0.5655002931893336,65.5557847271796,0.3019472421152111,66.82813778641449,0.06354166666666666,43,0.1818950583333333,0.001592636735604586,-5.10427872837423e-07,33.29666666666667,0.015776212754932073,1.6527782261225376e-05,63.57066666666667,0.44382378885719354,1.6399999999999935,0.0004723612392472964
S047,13118.0,13147.984375,N2,0.04989583333333328,27.863302764149285,-123.62,61.93,185.55,3.42,40.54518137297799,875.0,911.9303385416666,0.47312770621565686,0.4182003025531612,0.639110676328617,65.58346493056845,0.3815573799984067,67.08203932499369,0.203125,108,0.18091289166666663,0.00159501957561568,1.0337437700042923e-07,33.31633333333333,0.012242911781470345,1.1284725283399574e-05,64.777,0.5619558108368788,1.6000000000000014,-0.0009235071949618042
S047,13148.0,13177.984375,N2,-0.21074479166666676,29.959892916361845,-76.09,65.65,141.74,3.82,95.95511307574104,906.25,888.9078776041666,0.4182664600433822,0.22634628092568454,0.4219444387297929,65.67859812715403,0.30767632093743524,66.37017402418047,0.203125,115,0.18022957499999995,0.0016116194787774787,-5.305316109297975e-07,33.33,0.008944271909999498,-5.555557062594769e-07,64.64833333333334,0.4441177271349973,1.3000000000000043,0.0006480904535835652
S047,13178.0,13207.984375,N2,0.2896718749999999,31.1344145006548,-95.98,63.5,159.48000000000002,2.79,44.50787605636886,906.25,903.3935546875,0.46667480461654337,0.40385377708260806,0.48925520919273024,65.64967203325507,0.3091309205587741,66.91786009728644,0.14270833333333333,89,0.1802402083333333,0.001871072584089283,-8.476367316722924e-07,33.34433333333334,0.014761059883655255,1.2604170085766042e-05,64.478,0.5612806784488495,1.8000000000000043,0.0007791668780292095
S047,13208.0,13237.984375,N2,-0.1627447916666666,39.16187676141857,-172.47,190.54,363.01,4.460000000000001,63.20433108459087,1015.625,971.5738932291666,3.03483178991119,1.0229654604791567,1.270045862579598,65.65559405390643,0.9260414472266703,82.00609733428362,0.022916666666666665,9,0.1725531,0.007255006840566496,-1.1722339117387995e-05,33.394333333333336,0.0458754352083497,7.343751992120073e-05,65.19266666666667,0.44073373165917445,1.2299999999999898,-0.0007202085287023979
S047,13238.0,13267.984375,N2,0.2919791666666666,26.470055224402145,-62.73,50.92,113.65,6.34,62.45581654607203,953.125,943.017578125,0.4506168611531925,0.2914805954090255,0.6248298379470117,65.56689628432554,0.2638401798432559,66.29479617586888,0.16041666666666668,63,0.16536774166666668,0.0027773350971024746,1.1676915059927072e-06,33.46466666666667,0.016275407487644687,8.194446667330337e-06,65.45633333333333,0.5085763353606704,1.7999999999999972,-0.00047364596181802336
S047,13268.0,13297.984375,N2,-0.1339479166666667,24.924809211017457,-61.05,50.34,111.39,4.415,47.19687261403978,906.25,909.66796875,0.4535689874637472,0.23825719937822568,0.6161447326701919,65.68411325936928,0.28205849927984206,66.29479617586888,0.2677083333333333,133,0.16314701666666664,0.002752412208661501,1.4743710596709937e-07,33.482666666666674,0.014590712418826323,1.548611531198907e-05,64.60966666666667,0.548424916364026,1.470000000000006,0.0009336460866010438
S047,13298.0,13327.984375,N2,-0.22669791666666655,25.92350516488358,-62.23,47.11,109.34,4.865,28.33957061180258,890.625,899.560546875,0.3094837070518504,0.19741988090108856,0.6242000088446544,65.69320978061613,0.31141674108507345,66.29479617586888,0.32083333333333336,115,0.1609051,0.0028125358054017164,-4.4035255000883226e-07,33.48766666666668,0.01054619467970493,3.923612175459065e-06,65.00366666666666,0.43293943635981735,1.4500000000000028,0.0006026043301335538
S047,13328.0,13357.984375,N1,0.3167083333333334,24.794199836233823,-52.87,47.12,99.99,5.18,45.59908959997815,890.625,900.2522786458334,0.2179449471770337,0.1462753717308556,0.47898434031175685,65.63883241656212,0.2413758973214439,66.29479617586888,0.17291666666666666,98,0.15859900000000002,0.012180827085355629,-4.6481770421487154e-06,33.49566666666667,0.012023125864580927,1.9097227402678344e-06,66.39099999999999,0.11948082133408044,0.5900000000000034,0.00018211810495825297
S047,13358.0,13387.984375,N2,0.09443749999999976,78.95886866482716,-378.57,634.05,1012.6199999999999,3.42,47.57350554692384,921.875,894.384765625,4.450226273897642,1.3371685564145939,2.738840797660674,65.7344804785437,1.5488413570441883,93.8829057922687,0.025,9,0.14559494999999997,0.01136666764334062,-1.0465801016113552e-05,33.51533333333334,0.021715329966535888,1.5902782091682714e-05,66.84166666666667,0.23866410613151565,0.7999999999999972,0.00037204871203578264
S047,13388.0,13417.984375,N2,-0.05000000000000003,28.06664318895,-65.89,100.83,166.72,5.32,59.36671360930739,937.5,953.6214192708334,0.500077033996319,0.3618513713260675,0.7217772901645093,65.77270676771708,0.3679938150347202,67.08949247087803,0.22604166666666667,99,0.13631706666666663,0.0036134779246900367,-4.815307729846932e-06,33.541666666666664,0.015073892072792342,1.3854170424849544e-05,66.26533333333333,0.7937914643588012,2.0500000000000114,-0.0013965281566102876
S047,13418.0,13447.984375,N1,-0.6584322916666667,25.604835134830964,-59.72,44.61,104.33,5.525,72.37229318998007,968.75,975.5126953125,11.257897690806514,1.996109225450991,5.4445691595693155,66.06123776328369,4.241333145317475,131.67763667381033,0.023958333333333335,10,0.165463975,0.0902407721559812,7.948550875800472e-05,33.566,0.01404753833713918,5.000001356337955e-06,65.009,0.7534690880631184,2.299999999999997,-0.0012272572773592886
S047,13448.0,13477.984375,N2,0.7642031250000004,96.77050586304686,-708.16,453.39,1161.55,8.57,59.949479887792464,1093.75,1047.6806640625,0.8158158833680277,0.5779804624124898,0.5679128072135917,65.81524209025038,0.3923118679500401,67.43144666993287,0.20833333333333334,117,0.19410891666666666,0.0057046755496162,-9.013826663906971e-06,33.522333333333336,0.022903177848401655,-3.5729176358824465e-05,66.777,1.5082774943623602,4.350000000000001,0.002423646490789521
S047,13478.0,13507.984375,N2,-0.4468281249999999,64.29060098726556,-152.21,133.38,285.59000000000003,11.965,29.722810681975574,937.5,914.9576822916666,0.545801525790791,0.524565792664117,0.5173382731722919,65.790876619702,0.3595881131887157,66.70832032063167,0.078125,47,0.1876495916666667,0.0018381912871798382,-1.6068448369262198e-06,33.50966666666667,0.017026123718829517,6.215279463779986e-06,66.98233333333333,0.30271750674331466,1.019999999999996,-0.00020024310987497542
S047,13508.0,13537.984375,N2,0.2895572916666668,61.931747738789774,-150.83,121.54,272.37,7.505,38.16416908404589,953.125,945.9879557291666,0.43413387592103686,0.6063001124763948,0.4725436763323224,65.6880045074025,0.36173955013883413,66.93280212272605,0.03958333333333333,24,0.18585580000000002,0.0015718256296421694,-1.0035445430622126e-06,33.51133333333333,0.015434449203720666,9.5833359329797e-06,64.61066666666666,1.2916628387040052,3.759999999999998,-0.0021857644818154527
S047,13538.0,13567.984375,N2,0.18534374999999995,65.04393992947,-154.09,141.99,296.08000000000004,10.115,103.9106541770223,890.625,871.3704427083334,0.31534125034106564,0.5026740560216155,0.3388844418537912,65.60631942138197,0.36000274943424765,66.97014260101288,0.33645833333333336,112,0.18474544166666668,0.001641520508531821,-4.539912255835588e-07,33.522999999999996,0.016155494421403332,7.812502119276981e-06,64.40433333333333,0.6175310158652393,1.6999999999999957,0.001057673898023516
S047,13568.0,13597.984375,N2,0.28694270833333335,62.40541855293939,-150.39,130.38,280.77,7.039999999999999,32.53323734241926,937.5,928.9469401041666,0.47265043901386566,0.5594971933575718,0.4856937692620732,65.6463454258109,0.3506525846402843,66.58828725834597,0.06041666666666667,37,0.18414756666666668,0.001533396261752183,-1.2316105771513122e-07,33.553000000000004,0.018101565309847873,9.131946921644287e-06,64.46366666666667,0.4344688967259023,1.3799999999999955,0.0005221876416524635
S047,13598.0,13627.984375,N2,-1.1114375,63.87931019391381,-134.72,114.31,249.03,8.07,21.337721470197014,906.25,896.1995442708334,0.46904041929300244,0.49964831381682845,0.47729594061814057,65.6606823257849,0.3319837029486727,66.82813778641449,0.05,30,0.18403012500000002,0.0015490687716738132,1.6684618241270196e-07,33.559333333333335,0.009977753031398738,-1.3888892656494222e-07,65.36466666666666,0.07242160512505387,0.20000000000000284,-6.715279599414157e-05
S047,13628.0,13657.984375,N2,0.9115052083333333,64.18810126848354,-134.17,129.04,263.21,11.5,88.91282583007433,906.25,891.0888671875,0.5037188093459374,0.5081112903029544,0.4890722065951907,65.64860225374079,0.3529359670066744,66.58828725834597,0.06875,43,0.18476684166666668,0.001762087370118341,7.977122389627405e-07,33.56933333333334,0.0131487219488794,6.4583350852698585e-06,66.37866666666667,0.33608266178956014,1.1500000000000057,0.0004922918002093653
S047,13658.0,13687.984375,N2,-0.7472499999999999,60.63988284536836,-139.58,115.26,254.84000000000003,4.97,28.306764599508966,890.625,889.5833333333334,0.49448345663822657,0.4963364044565831,0.4827481640882289,65.67316032366344,0.3469698868774508,66.82813778641449,0.06458333333333334,43,0.1849376166666667,0.0016398371269902292,2.8643670964538826e-08,33.58933333333334,0.015040685563571389,6.736112938398905e-06,66.58733333333333,0.1147151060477903,0.3400000000000034,0.00014500003933377956
S047,13688.0,13717.984375,N2,0.33128645833333337,61.67701225488128,-132.88,110.88,243.76,7.215,40.01719303973861,875.0,883.837890625,0.5200160253940898,0.49670681989535387,0.49914858064063006,65.69289122933877,0.3435116644278461,66.82813778641449,0.10104166666666667,61,0.18483087499999998,0.001631492203283551,1.0925502095676616e-07,33.61133333333335,0.015434449203719561,6.388890621985906e-06,66.80533333333334,0.20558426225975718,0.7800000000000011,0.00024840284516136206
S047,13718.0,13747.984375,N2,0.0038125000000002037,63.42490136756759,-138.88,113.87,252.75,7.54,31.147103980096517,875.0,876.0986328125,0.5220392289830548,0.49434190084450214,0.4994256684071103,65.70348127180286,0.3376493731470863,66.82813778641449,0.090625,58,0.18547145833333334,0.0015761336020773213,-2.2610097279214606e-07,33.61866666666667,0.012310790208413747,8.263891130613923e-06,67.70933333333333,0.2531262311355528,0.9000000000000057,0.00032368064335954936
S047,13748.0,13777.984375,N2,0.11335937499999839,156.7184640306996,-737.43,825.7,1563.13,2.045,56.255987814104984,781.25,827.4576822916666,10.24553378095047,3.6456236546847816,7.088134402334338,65.7210878948445,1.5522368541743161,91.71150418568,0.030208333333333334,12,0.1959559,0.04609141420271965,-1.4432933602683801e-06,33.63133333333334,0.019275776393067334,-6.458335085269663e-06,68.24433333333334,0.36676680450783544,1.0700000000000074,-0.0006012848853311859
S047,13778.0,13807.984375,N2,-0.2865416666666666,29.663686431855204,-69.91,61.72,131.63,4.54,38.12539341902509,937.5,932.8938802083334,0.22634628092568448,0.2929269646127209,0.2795007329547138,65.69013730234654,0.20571711691170322,66.58828725834597,0.075,44,0.19078842499999998,0.0014921182072392956,1.8627826233675665e-08,33.61933333333334,0.013399834161495013,-2.9166674578625976e-06,67.22033333333333,0.470237410487748,1.6200000000000045,-0.000787951602634442
S047,13808.0,13837.984375,N2,0.3742864583333333,28.23914346536603,-66.42,59.69,126.11,3.67,46.833409119269795,906.25,894.3929036458334,0.5063785844931964,0.4501109045434123,0.2902775701089103,65.58332968142318,0.3634229369379088,67.19374970932937,0.23854166666666668,83,0.19050019166666665,0.0016287110921207695,5.618599614420324e-08,33.62266666666667,0.014126413400278256,5.76389045244455e-06,65.23233333333333,0.2261958345229992,0.9200000000000017,-0.00019510421959207446
S047,13838.0,13867.984375,N2,-0.1754791666666667,29.090742615413458,-68.28,59.03,127.31,2.175,106.6479976529075,906.25,855.7942708333334,0.49955600946963113,0.43942903097529745,0.1729009782039676,65.66017392171574,0.34895401326809733,67.19374970932937,0.028125,21,0.19025465,0.0016735984915245772,1.420581982579756e-07,33.63,0.012382783747337256,7.986113277482605e-06,64.96633333333334,0.09958190375542982,0.3300000000000125,0.00015017365184832166
S047,13868.0,13897.984375,N2,0.15798958333333327,27.181571066546628,-63.64,54.28,117.92,3.66,33.28793832099836,906.25,902.2054036458334,0.4981726590890842,0.4336124401627436,0.1818118685772619,65.65104476534606,0.33025932012281134,66.58828725834597,0.22291666666666668,65,0.1903827416666667,0.0015715507813188528,1.092637015146751e-07,33.651999999999994,0.011661903789688849,8.541668983741292e-06,65.96433333333333,0.39289254963100934,1.230000000000004,0.0006834376853943365
S047,13898.0,13927.984375,N2,0.008802083333333337,28.160087720743977,-67.49,53.19,120.67999999999999,4.445,55.901044880589595,765.625,818.1559244791666,0.507991688470939,0.36110844016106236,0.13981246740425785,65.67852275040164,0.31521049841374355,66.58828725834597,0.007291666666666667,6,0.19109810833333335,0.0016193480982370355,3.342351167087453e-07,33.65866666666666,0.009568466729604562,-1.0416669492367779e-06,66.87566666666667,0.18805466108436686,0.7600000000000051,0.00031003480632454836
S047,13928.0,13957.984375,N2,-0.2794270833333333,29.126532979772353,-60.95,54.66,115.61,3.33,35.09440315524218,890.625,890.771484375,0.5261850052236592,0.3443744328488977,0.19986703479369033,65.66427570287945,0.32239429725596663,67.19374970932937,0.10729166666666666,48,0.19174929166666665,0.0014598365969965854,-1.5258532784975272e-07,33.681999999999995,0.017962924780410908,-1.5277781922140527e-06,67.355,0.12687920764779784,0.36999999999999034,-0.00014329864998335648
S047,13958.0,13987.984375,N2,0.31558854166666656,30.099549362758218,-66.05,58.2,124.25,5.84,26.257442448679562,906.25,894.189453125,0.4977978850648122,0.31340840191176894,0.1435989544607558,65.68610021782206,0.31587947211843864,66.58828725834597,0.0125,9,0.19219779166666667,0.0016232094642807417,2.571699916368259e-07,33.695,0.026172504656604888,3.1979175341572994e-05,67.19333333333334,0.1182746333280685,0.38000000000000966,-0.000121111143964612
S047,13988.0,14017.984375,N2,-0.22440625000000006,28.27777830001786,-64.07,55.01,119.07999999999998,2.49,22.019912953121466,890.625,886.5315755208334,0.4933542717966471,0.33071891388307384,0.17116012950028855,65.71128443682112,0.3010636641295348,66.58828725834597,0.008333333333333333,6,0.192891825,0.0015922377160383474,-1.2402542426904978e-07,33.72566666666667,0.015849991237291004,9.965280481031283e-06,67.259,0.12270153489939369,0.3300000000000125,0.0001837847720770335
S047,14018.0,14047.984375,N2,-0.13403125,29.531099666267483,-66.58,55.28,121.86,5.105,49.41474602469036,890.625,893.115234375,0.5016887713153334,0.3529390488770295,0.1878209059405617,65.68745526395426,0.3225744554999419,66.58828725834597,0.017708333333333333,10,0.19419445833333338,0.0014696014646599102,3.381053434530555e-07,33.739333333333335,0.013399834161495578,1.2361114464278958e-05,67.17066666666666,0.08358362412711276,0.2600000000000051,5.416668136033e-06
S047,14048.0,14077.984375,N2,0.14794791666666657,29.186450108836816,-68.66,52.18,120.84,4.285,82.53734469086774,875.0,852.8483072916666,0.5143386732818497,0.3630921887069453,0.20883013681379098,65.6792830774219,0.3315108382566923,67.19374970932937,0.020833333333333332,15,0.19473899166666667,0.00146914371600054,-3.4503937311180626e-07,33.75866666666666,0.012310790208414246,6.319446158704298e-06,67.46699999999998,0.08869986847040272,0.23000000000000398,0.00015114587433427592
S047,14078.0,14107.984375,N2,0.19331250000000005,28.367892130420568,-62.74,57.14,119.88,4.48,40.89395470368202,890.625,885.3434244791666,0.4813176359397884,0.2068462551362458,0.11172573064826603,65.7088787051837,0.2896278775583283,66.58828725834597,0.008333333333333333,7,0.194429375,0.0014594270740174004,-8.452628160977693e-08,33.78066666666667,0.014360439485691132,8.333335593895258e-06,67.90033333333334,0.18263777143722298,0.5799999999999983,0.00019565977529833312
S047,14108.0,14137.984375,N2,-0.2973020833333333,28.8100140451848,-67.1,60.19,127.28999999999999,2.15,38.074854789696886,859.375,873.9827473958334,0.5074274715551857,0.2763853991962833,0.1819908231813413,65.69662088211862,0.3093078367003484,67.19374970932937,0.016666666666666666,13,0.1943652666666667,0.0015951400656020402,-4.5100923692741986e-07,33.794000000000004,0.01665332799572916,1.3333336950233067e-05,67.80066666666667,0.08842825089051397,0.3299999999999983,0.00010097224961270122
S047,14138.0,14167.984375,N1,-0.05695833333333287,104.2013902804241,-710.37,651.84,1362.21,3.92,38.087853712256134,921.875,922.9654947916666,10.464321772811202,3.052445051091101,3.9536287832263106,65.66187952542222,2.1032896112846324,91.10433579144299,0.028125,10,0.1987532416666667,0.017314968945489447,5.475179653640313e-06,33.85366666666666,0.052312097602328314,6.079862760379336e-05,67.827,0.29104581540827285,1.0799999999999983,-0.00021260422433925396
S047,14168.0,14197.984375,N1,0.46280208333333306,96.68620469592597,-874.37,477.11,1351.48,6.045,67.8144181425096,953.125,959.3587239583334,8.582224278571863,3.1585516566471306,2.80003720213381,65.74359921781756,2.66770723412024,102.19099764656376,0.034375,11,0.20779605833333334,0.04319520106259796,9.690014130320673e-06,33.90233333333333,0.039638645564931504,4.6562512630891145e-05,67.62633333333333,0.6928851917084744,1.8100000000000023,-0.0011959378244188973
S047,14198.0,14227.984375,N2,-0.3636458333333332,33.18982912165361,-83.22,108.68,191.9,4.04,59.56966990417868,953.125,925.8951822916666,0.40807682206703844,0.49789487400008003,0.29372598897139185,65.40100347280993,0.357064069182252,66.71581521648372,0.027083333333333334,22,0.1944826666666667,0.0020558971696615115,-2.348514525964221e-06,33.95733333333333,0.015902480589168187,-7.84722435091813e-06,68.08333333333333,0.5434110373884175,1.9000000000000057,-1.0416669492367038e-06
S047,14228.0,14257.984375,N2,0.22909895833333332,68.37763016552056,-596.96,468.32,1065.28,3.99,60.372935285907296,1000.0,962.1419270833334,5.0995939338275305,1.4940841095429962,1.959191966021253,65.44895614080369,1.1883875963485233,77.64663547121665,0.026041666666666668,10,0.20965373333333334,0.012473927035843827,-1.0238369964835603e-05,33.928666666666665,0.02124983660068048,-2.3472228589473327e-05,66.96866666666668,0.5293816098892078,1.4500000000000028,0.0008513196753796873
S047,14258.0,14287.984375,N2,-0.06278125000000001,25.424076467864378,-59.23,56.81,116.03999999999999,4.8,12.321702606597322,906.25,914.0869140625,0.5187081643103588,0.4871793817476268,0.4104735049475043,65.38974966066371,0.3931890754640488,66.4981202741852,0.18125,102,0.20534041666666666,0.0015839735823940456,-8.41220714306835e-07,33.91066666666666,0.012092238098144569,1.7361115820607783e-06,66.38233333333332,0.3643412624937727,1.4000000000000057,-0.00036128482022700466
S047,14288.0,14317.984375,N2,-0.13094270833333324,26.013550134914645,-64.25,79.5,143.75,3.9800000000000004,64.37502615145222,875.0,848.2340494791666,0.48648286876027014,0.4984306970103488,0.3724683058850631,65.39403659659314,0.33877613567916454,66.51315659326356,0.16041666666666668,92,0.2042729,0.0015312579599793057,4.4201183865338456e-07,33.923333333333325,0.014907119850000398,4.1666677969490355e-07,67.47233333333334,0.4453514217883314,1.3399999999999892,0.00031795147513874575
S047,14318.0,14347.984375,N2,0.18308854166666674,26.777558452159653,-73.41,57.17,130.57999999999998,5.79,57.666040891217776,890.625,885.5794270833334,0.46351240544347894,0.49808225977241943,0.34437443284889774,65.42343277058025,0.34379428931959194,66.03786792439622,0.18541666666666667,101,0.20592756666666664,0.0015859945919061533,4.167713804175855e-07,33.93266666666666,0.015260697523015182,1.791667152687767e-05,66.85266666666666,0.19892935652861302,0.6499999999999915,0.00032270842087359205
S047,14348.0,14377.984375,N2,0.06252604166666682,27.87662213561805,-139.12,59.91,199.03,5.145,87.16715980667458,875.0,874.4954427083334,0.44953679864203927,0.521265445747707,0.38459371600286035,65.4290834202679,0.35154580113019657,66.4981202741852,0.19895833333333332,91,0.20620515000000003,0.0017148020276891093,3.4458733305863173e-07,33.942,0.013266499161422174,-1.5277781922140542e-06,67.66933333333333,0.1409948777635397,0.6099999999999994,0.00015013892961667942
S047,14378.0,14407.984375,N2,-0.31632812499999996,25.835580192073955,-57.88,49.87,107.75,4.51,24.300904207365324,890.625,893.9290364583334,0.4202966875381669,0.48812282152024905,0.39604024197534377,65.38556759770123,0.3153171838709725,66.03786792439622,0.15729166666666666,79,0.20640800833333336,0.0017060908411523417,1.1360738758880988e-06,33.95733333333333,0.013148721948876304,2.5694451414504132e-06,68.17233333333334,0.11752115648776713,0.37000000000000455,0.00015309031930618388
S047,14408.0,14437.984375,N2,0.025619791666666666,25.464042451056187,-67.43,52.17,119.60000000000001,5.32,97.19732525855812,890.625,941.2272135416666,0.4372010387269098,0.49418383718061387,0.4079278918271654,65.40942662671425,0.3348383159374787,66.51315659326356,0.18333333333333332,92,0.2076251583333333,0.0015129095423269381,1.968201488769941e-07,33.96566666666667,0.018199511592957917,6.70139070675714e-06,67.71533333333335,0.1630487316383932,0.75,-0.0001417361495594974
S047,14438.0,14467.984375,N2,0.06034374999999998,27.480248251140964,-60.07,65.81,125.88,4.955,31.18171755337222,890.625,889.2659505208334,0.4261817210709535,0.493692858859523,0.4249068014642217,65.3944018175519,0.31839847868997845,66.4981202741852,0.15729166666666666,97,0.207646525,0.0017578343065758554,1.3402123861253252e-06,33.982000000000006,0.011661903789691693,4.444445650077787e-06,67.52333333333333,0.0502880591083881,0.1799999999999926,-7.444446463879594e-05
S047,14468.0,14497.984375,N2,0.17802604166666672,25.562500841673764,-64.18,58.3,122.48,4.655,55.121135226342915,890.625,904.8909505208334,0.4006708242123451,0.4924682290231749,0.41758232721225164,65.40542817716886,0.3239829643781844,66.4981202741852,0.17395833333333333,78,0.2092802,0.0014914515111125808,-2.6836856238296513e-07,33.993,0.009000000000000024,6.215279463780061e-06,66.64833333333333,0.3970649261211014,1.2000000000000028,-0.0006732293492918161
S047,14498.0,14527.984375,N2,-0.20528125000000003,25.450880154722846,-59.48,50.85,110.33,4.405,63.34335774845639,890.625,861.9303385416666,0.3686837864281531,0.49209793056249373,0.4090767042988393,65.42653976338869,0.3341325930209046,66.4981202741852,0.18958333333333333,97,0.2106147583333333,0.0016288450304629569,4.498788112735476e-07,34.006,0.017435595774162593,1.166666983145313e-05,66.46866666666665,0.11359968701052166,0.3499999999999943,0.0001587500430637027
S047,14528.0,14557.984375,N2,-0.02830729166666668,27.048839204132005,-66.12,62.74,128.86,4.0649999999999995,47.46278777525446,875.0,887.060546875,0.3772847068196642,0.4958114490968875,0.41962362227953753,65.43313028100131,0.3388755368998881,66.4981202741852,0.196875,100,0.21172505833333333,0.0017647436938350396,1.3072497035725065e-06,34.028,0.019561867668160943,1.0694447345498579e-05,67.10366666666667,0.30779304013501624,1.0200000000000102,0.0005504515382084258
S047,14558.0,14587.984375,N2,0.08956770833333344,27.94275000392542,-63.55,64.63,128.18,4.17,33.54270566195922,859.375,876.7008463541666,0.37343277832905286,0.493692858859523,0.42425895361467886,65.42201509681378,0.3362523937036955,66.4981202741852,0.18541666666666667,107,0.21370018333333332,0.0019253673847837187,1.6658402956381025e-06,34.047999999999995,0.017397317800933208,1.131944751504097e-05,67.59866666666666,0.06989198014714541,0.18999999999999773,9.298613633521701e-05
S047,14588.0,14617.984375,N2,-0.048244791666666606,26.39873885861773,-63.55,56.7,120.25,5.225,30.09034276089016,906.25,903.955078125,0.343086480837315,0.48812282152024905,0.42096609910683097,65.416061655661,0.32326840668543744,66.4981202741852,0.17708333333333334,100,0.21609186666666666,0.0017496959304087384,1.621345925929348e-07,34.06466666666667,0.01359738536958228,1.3055559097103995e-05,67.41033333333334,0.26119575460221917,0.7199999999999989,-0.00045496540119504327
S047,14618.0,14647.984375,N2,0.21746354166666665,26.485617387747055,-61.35,60.81,122.16,4.595000000000001,95.44318434530213,875.0,846.6634114583334,0.33385376040016884,0.49132999596051086,0.3952352938440594,65.44473976122875,0.3409485567920576,66.4981202741852,0.2125,102,0.21594239999999998,0.0015648407075482195,7.371043666190246e-07,34.07933333333334,0.013399834161495532,6.944446328252584e-07,66.94566666666667,0.10242666753449434,0.3199999999999932,-0.00016385421111496433
S047,14648.0,14677.984375,N2,-0.0011302083333334305,25.90381248532178,-60.29,61.33,121.62,4.675,37.07130665725088,906.25,895.6705729166666,0.3675637109362433,0.4958114490968875,0.42096609910683097,65.43828333789219,0.33824122025136494,66.4981202741852,0.19791666666666666,102,0.21725565833333332,0.0015420329249394178,7.194691621823868e-07,34.08666666666667,0.016397831834999047,1.3819448193210588e-05,67.02666666666666,0.21119238201749135,0.5699999999999932,0.00037416676816589764
S047,14678.0,14707.984375,N2,-0.15246875,26.2991741978452,-57.66,55.25,112.91,4.715,58.61457963094592,906.25,897.65625,0.3334488732049738,0.4856937692620732,0.3992166265707824,65.42407987741997,0.3325740914518635,66.4981202741852,0.184375,92,0.21813104166666666,0.0016359157598311322,2.824525505784915e-07,34.106666666666676,0.018678567634829245,1.6736115651073333e-05,67.48833333333333,0.10185228956134779,0.29999999999999716,0.00014524309495526544
S047,14708.0,14737.984375,N2,0.09009895833333331,25.72101596013379,-67.76,56.04,123.80000000000001,3.99,43.005712775309185,890.625,877.9622395833334,0.39170545020745146,0.496462092586131,0.4311430523587528,65.42562239900687,0.33914161629828654,66.4981202741852,0.18541666666666667,101,0.218131025,0.001585002578665089,2.696943005898169e-07,34.11933333333334,0.01236482466066175,6.944446328246812e-06,67.48466666666667,0.0417718671941859,0.12999999999999545,-4.0625011020237374e-05
S047,14738.0,14767.984375,N2,-0.18865625000000003,26.75194723377165,-61.63,56.19,117.82,4.66,69.729250426594,890.625,860.6282552083334,0.3549256573174476,0.486447180457447,0.39442595198239966,65.42425316306672,0.32979496906571093,66.4981202741852,0.18854166666666666,98,0.21835522500000001,0.0015108425213684522,3.694551783461319e-07,34.13333333333333,0.016397831834997507,2.395833983244715e-05,67.53066666666668,0.08767110254936848,0.25,-0.00011416669763636178
S047,14768.0,14797.984375,N2,0.05504687500000003,26.514925109067715,-60.43,58.87,119.3,4.505,46.32241522498512,875.0,879.2643229166666,0.3527406955029273,0.496208497774765,0.39842898956052664,65.45836605866367,0.35680937485999237,66.03786792439622,0.23541666666666666,116,0.21869683333333334,0.0014791581915250096,-2.860790706594682e-07,34.15333333333332,0.009067647005822521,4.652779039923722e-06,67.74166666666667,0.0943074169346644,0.29999999999999716,0.00015989587670786393
S047,14798.0,14827.984375,N2,0.22401041666666668,26.85149381823523,-61.43,56.2,117.63,3.7649999999999997,48.339786208404306,875.0,894.384765625,0.3853307899822351,0.49264997011626366,0.3962497809322913,65.42728540130696,0.3423448786321339,66.03786792439622,0.2,107,0.2196149083333334,0.0017804372636884857,1.1100725667514527e-06,34.16566666666666,0.013085190950928091,7.1180574864524865e-06,67.77233333333332,0.15329021132769463,0.45000000000000284,0.00017781254823474212
S047,14828.0,14857.984375,N2,-0.0609010416666667,27.751754046865347,-69.77,66.3,136.07,4.085,69.01462182242463,890.625,890.7389322916666,0.3266982871600849,0.4807221130757352,0.3527406955029273,65.43747950514806,0.3412980320194852,66.03786792439622,0.21145833333333333,118,0.22087468333333335,0.0016972494610561994,1.145193018986821e-06,34.18033333333333,0.015595583420387424,1.128472528340088e-05,67.65866666666668,0.09797051710704725,0.3499999999999943,-0.00017270838018347995
S047,14858.0,14887.984375,N2,-0.17235937500000012,27.402442546354628,-61.85,62.17,124.02000000000001,3.5999999999999996,44.705803952773316,875.0,888.8671875,0.39692694323249067,0.4981737481374679,0.3978621254069471,65.44461823831247,0.3548266828649017,66.4981202741852,0.21770833333333334,113,0.22236946666666668,0.0015232764026560988,3.5669410717613703e-07,34.196999999999996,0.020518284528683636,2.8854174493862764e-05,67.53533333333333,0.04856153027059749,0.18999999999999773,-3.2569453279473085e-05
S047,14888.0,14917.984375,N1,-3.633317708333333,67.2674588697603,-662.26,339.91,1002.1700000000001,2.85,26.9288462019369,921.875,911.5641276041666,3.68623904405704,1.8385741262479283,2.444459216140658,65.50234803298535,0.7484053039595108,74.24957912338628,0.051041666666666666,26,0.22070388333333335,0.01659217552451724,-2.1572141268484526e-06,34.23233333333334,0.05414076303694051,3.357639799707004e-05,67.24499999999999,0.13283448347473517,0.519999999999996,-0.0002219097824191019
S047,14918.0,14947.984375,N2,3.592598958333333,107.48448771249893,-531.87,428.32,960.19,8.775,0.0,937.5,937.5,4.747614532583706,1.9192181839228182,3.2533929938177195,65.89845171898538,1.6621705810630545,91.72785836374901,0.028125,9,0.2218890166666667,0.018655694779335402,-7.035961544043394e-06,34.23366666666666,0.03772561758569662,-4.767362404340981e-05,66.67533333333334,0.06499914529352659,0.269999999999996,1.805556045344499e-06
S047,14948.0,14977.984375,N1,0.21526562499999974,129.1914627441423,-861.63,531.92,1393.55,9.52,51.52524829092905,1000.0,981.2581380208334,4.8995906459891,1.58910645697424,3.1034673079633404,65.7511400158408,1.1730849432007024,77.99358948016176,0.023958333333333335,10,0.22718459166666669,0.022879072594657265,5.731435365515236e-06,34.24966666666667,0.05154178455928399,6.503473986402581e-05,65.621,0.6494990377206104,2.1499999999999915,-0.0011637850379191167
S047,14978.0,15007.984375,N1,-0.17858333333333315,53.665680566833295,-153.04,129.36,282.4,6.335,45.01555253525859,953.125,960.0830078125,0.24137913929933733,0.32834152908552733,0.4311594107751795,65.63898211969959,0.2720777274195108,66.91038783328041,0.15416666666666667,66,0.21945479166666668,0.0026953814816454468,-8.256901111355539e-07,34.28,0.015275252316518753,-4.65277903992525e-06,63.56666666666667,0.621966415670671,1.769999999999996,-0.0010755558473187518
S047,15008.0,15037.984375,N2,-0.1332135416666664,90.79126111774323,-552.23,555.29,1107.52,4.375,79.52170442339428,937.5,934.5296223958334,6.4568155978725725,2.5219556730178003,3.4760583670061314,65.99703744899449,2.0249501119829794,88.84818512496471,0.04583333333333333,15,0.21413794166666664,0.0022783671137309217,-1.7478848057413252e-06,34.28966666666667,0.027139557025779696,-1.3298614718591568e-05,63.507,1.1396729062908069,3.479999999999997,0.0019414935822193967
S047,15038.0,15067.984375,N1,-0.1647708333333335,59.49000974734455,-692.8,358.8,1051.6,5.705,26.613362552442673,921.875,905.6396484375,4.315329184688258,0.9631891246949145,2.670610486998036,65.87256807055803,0.8994122838641415,83.15046602394962,0.028125,14,0.2151095083333333,0.007125294206786406,2.248017319883172e-06,34.297666666666665,0.021553550880435562,9.756947091186034e-06,66.49499999999999,0.23478713763747835,0.9000000000000057,0.00040753483277312203
S047,15068.0,15097.984375,N2,0.47643229166666673,37.75756368942574,-105.69,101.1,206.79,5.140000000000001,19.62220945989084,921.875,932.4951171875,0.3475859206329023,0.2582808246366733,0.3434515750073073,65.75804945502647,0.23223236271414624,66.82813778641449,0.13333333333333333,72,0.2133264833333333,0.0017784112243954047,-9.976339511810849e-07,34.30066666666667,0.01236482466066175,8.055557740765817e-06,66.83,0.20086479698211485,0.6300000000000097,5.159723621886784e-05
S047,15098.0,15127.984375,N2,0.4275937500000001,95.4531231255337,-641.78,366.61,1008.39,3.9800000000000004,13.060151817422089,1000.0,992.9524739583334,11.494559212647328,3.419536237795591,4.055230541937645,65.81528956566244,2.479867480600521,102.55242561733974,0.027083333333333334,11,0.2123442833333333,0.00620841879384133,-4.489153995538734e-06,34.34900000000001,0.039526362510776354,-4.062501102023293e-06,67.22133333333333,0.5263632037122485,1.6200000000000045,-0.0006382640620290971
S047,15128.0,15157.984375,N1,-0.0864322916666664,38.243962045642455,-120.09,87.26,207.35000000000002,1.705,65.30213583565173,1015.625,969.0348307291666,0.2705126306354905,0.37078651389834677,0.6289838310499104,65.74122113055112,0.31650844745741835,66.73829485385434,0.057291666666666664,34,0.21530173333333333,0.03667351405799861,1.603667014883632e-05,34.34133333333333,0.014313940369055759,-1.041666949236958e-05,67.03033333333333,0.9365663647364,3.3799999999999955,-0.0015444101411702861
S047,15158.0,15187.984375,N2,-0.15002604166666653,113.33668627308593,-635.26,557.3,1192.56,7.345,25.803033379261482,968.75,961.8082682291666,6.242961314330101,2.464429015667501,3.739359324767041,65.2859630392465,1.933883408620949,82.66196223173026,0.03333333333333333,13,0.22485713333333332,0.003824323005302886,-5.2665205258573465e-06,34.49533333333333,0.03694440267332614,1.9513894182371594e-05,62.76066666666667,0.6791658282203422,2.6600000000000037,-0.0008607641223861014
S047,15188.0,15217.984375,N2,0.02685937499999985,126.55322875951997,-832.19,573.94,1406.13,7.945,50.61520286757145,953.125,976.3346354166666,3.6261109408780583,1.1772358861320964,2.0734337713480664,65.49340756741589,0.7651406461244041,71.84010022264724,0.035416666666666666,13,0.22130178333333336,0.0030541496284654354,-1.114726430861122e-06,34.45633333333333,0.03167368343313233,-5.149306952394584e-05,60.80100000000001,0.8726410105726939,3.0999999999999943,-0.0015369795835990616
S047,15218.0,15247.984375,R,-0.16489062499999996,26.482088822929683,-108.24,106.23,214.47,-1.07,0.0,953.125,953.125,0.10642856726723118,0.0,0.29578748177534486,65.33460161634419,0.14519515692911325,65.76473218982953,0.10833333333333334,87,0.22025545833333335,0.0016322514455797616,1.2263827111498022e-07,34.41333333333332,0.01468181036369686,-7.708335424353259e-06,59.83500000000001,0.6200309132078279,1.8599999999999994,0.0008053127184550553
S047,15248.0,15277.984375,R,0.17661979166666644,34.68540580136611,-119.85,91.84,211.69,3.3,0.0,953.125,953.125,3.6538707536494774,0.22797988154415927,1.1202038969907813,65.34812782519847,0.5364836824379238,69.54135460285484,0.026041666666666668,14,0.22270036666666665,0.013210399219890702,5.983864470449346e-06,34.41333333333332,0.014681810363697078,8.125002204047697e-06,61.815666666666665,1.539964682134699,4.700000000000003,0.0027495493569741104
S047,15278.0,15307.984375,R,-0.15965104166666588,118.40915566080739,-548.53,737.32,1285.85,2.755,46.01842037360743,953.125,938.916015625,2.8600742921464866,0.8077418099846152,1.5099923973088587,65.62149851349874,1.1642126851289891,83.83913167489273,0.0125,5,0.21367883333333332,0.0047841814997157265,-6.4211545196274205e-06,34.54899999999999,0.03069744831958118,-1.2048614379508587e-05,64.29,0.31101982787811683,1.0899999999999963,0.0003949306626873535
S047,15308.0,15337.984375,R,-0.3704114583333336,49.51427708023837,-137.46,109.36,246.82,6.445,39.491962080472625,1125.0,1095.9391276041667,0.41410540920224115,0.4090767042988393,0.4963364044565831,65.62463572504059,0.3898430740591391,66.55824516917495,0.19166666666666668,79,0.20945099166666664,0.0016371774262218949,-7.598506835532437e-07,34.57866666666667,0.015216949614018416,1.5208337458859527e-05,62.306333333333335,1.8666913391226618,5.43,-0.0033532995207518233
S047,15338.0,15367.984375,R,-0.2726041666666666,75.12291613020501,-701.36,409.52,1110.88,9.969999999999999,82.71721330211378,953.125,948.3642578125,7.2736608040969,1.3085253143382014,5.543987511353328,65.68533950608074,0.906416370976585,74.83982896827064,0.03229166666666667,17,0.2092267333333333,0.002165501180378856,2.2627414992245804e-06,34.579000000000015,0.03369965380633277,-4.454862319569954e-05,59.11633333333332,0.43300872457209866,1.3200000000000003,-0.0007487154808798508
S047,15368.0,15397.984375,R,0.86240625,51.781140042546326,-111.38,83.22,194.6,10.585,104.2795408959414,1015.625,957.8776041666666,0.46651783340928016,0.5072349814325594,0.6346340809211767,65.71060160811463,0.341813252585929,66.76825593049439,0.275,132,0.2108176333333333,0.0014652849662172209,7.903708741240394e-07,34.556,0.012806248474866257,-2.0833338984605706e-07,61.35666666666667,1.1969275481646977,3.9299999999999997,0.0020481950000528965
S047,15398.0,15427.984375,R,0.24562499999999995,139.07451924809428,-823.51,662.37,1485.88,12.515,85.02824088227399,984.375,928.3284505208334,7.44139603837882,1.6155088073412731,3.5712970089855154,65.79029663540992,1.4246322185400253,78.4219357067906,0.04375,17,0.22516673333333337,0.03342858682568293,-1.4496311658070648e-05,34.50633333333334,0.031035821597345272,-4.079862217844554e-05,62.42366666666667,0.3412866178969743,1.0599999999999952,7.642363184234762e-05
S047,15428.0,15457.984375,R,-0.9196041666666671,105.66077416198493,-222.44,186.09,408.53,16.65,54.92927451983638,1062.5,1049.0315755208333,0.5978985188883553,0.4305890163969196,0.3911440995301121,65.80546638123036,0.3721706805041385,67.29784543356496,0.04479166666666667,33,0.21788550833333337,0.0015801910538277353,1.0929017721630241e-07,34.504,0.013564659966250562,-3.6805565539705255e-06,61.20366666666667,0.6938418808025034,2.1799999999999997,-0.0011719100401231654
S047,15458.0,15487.984375,R,0.9398750000000002,115.2466498251549,-264.01,219.78,483.78999999999996,20.625,67.88288797653442,1015.625,1013.4114583333334,1.2374088069654083,0.6438679773231638,0.6519069250198902,65.77950877487477,0.4676808058629272,67.4166151627327,0.0625,38,0.216647075,0.0016931953281813066,-6.936718461566408e-07,34.507666666666665,0.016265163865007818,1.5034726300652965e-05,60.27766666666666,0.6517191794698768,2.1499999999999986,-0.0008442016178932343
S047,15488.0,15517.984375,R,-1.239447916666667,115.13271876452788,-231.49,196.24,427.73,14.655000000000001,59.89315690404819,796.875,812.3453776041666,0.42465135822421035,0.49484210269258844,0.295032660621385,65.70086368858792,0.3603386003790778,66.70832032063167,0.017708333333333333,13,0.21753315833333337,0.0018534371628402214,1.3490005829537175e-06,34.522999999999996,0.01968925256749617,7.395835339582818e-06,62.001333333333335,2.4190421428509445,7.38000000000001,0.004332431730802877
S047,15518.0,15547.984375,R,-0.6394322916666672,144.5296014484021,-692.09,690.85,1382.94,14.07,121.19659541138961,1109.375,1164.7786458333333,2.445176658012441,0.6493310860993796,1.8838261592471555,65.70056054370808,0.5071267848194432,70.7248188403477,0.051041666666666666,26,0.22038370000000002,0.00776539848687754,3.942684229243766e-06,34.544,0.02950706130177397,2.659722943718277e-05,65.87633333333333,0.6221976284822114,1.9299999999999926,-0.001072882235482377
S047,15548.0,15577.984375,R,0.4295885416666664,142.67742138623214,-283.51,246.14,529.65,15.625,223.815327608229,843.75,966.3248697916666,0.5202121295416151,0.3717217821615157,0.4990224819584785,65.79819026603387,0.3509383347583954,66.7757440991862,0.027083333333333334,19,0.21747983333333334,0.0015416925511340493,-5.012796498696979e-07,34.58533333333334,0.015216949614018229,7.152779718094303e-06,61.642,1.5615961919352481,5.669999999999995,-0.0027878479784743874
S047,15578.0,15607.984375,R,0.6013854166666666,175.6657030818095,-1142.13,836.91,1979.04,18.655,129.4382132766336,1062.5,1028.1575520833333,6.391216354057732,1.2301862826135541,3.340398761957753,65.54018630494565,0.5651511122531581,68.41052550594829,0.07395833333333333,46,0.225412275,0.01843049505618451,-1.4770796107529345e-06,34.59966666666667,0.024560582693050597,-3.923612175460249e-06,58.62666666666667,0.6305940761606383,2.3900000000000006,0.0005850696031547332
S047,15608.0,15637.984375,R,0.8003802083333337,101.59254522412488,-209.31,175.85,385.15999999999997,20.46,123.36041260617723,875.0,951.513671875,0.4422166387140533,0.384458267855202,0.5269793622751168,65.46105814025488,0.363536552271749,66.70082458260917,0.17916666666666667,97,0.21946543333333335,0.0014883772524314997,-1.5485941700830378e-07,34.58733333333335,0.013399834161494614,7.91666881420006e-06,62.22166666666667,0.5662807509432836,2.0500000000000043,-0.00011899308783449646
S047,15638.0,15667.984375,R,-1.511296875,103.31412109453802,-252.5,211.34,463.84000000000003,11.0,75.9186537894657,968.75,974.12109375,0.7952877711174045,0.6491505868248136,0.4981203819666041,65.52834456974074,0.37998852964627794,66.83561924602779,0.209375,94,0.21899571666666665,0.0016943245516691512,-1.042765473840459e-06,34.58600000000001,0.01496662954709627,4.30555672351319e-06,62.05366666666667,0.582319976950436,1.5500000000000043,0.000997812770674038
S047,15668.0,15697.984375,R,0.44027083333333344,96.00045181116327,-208.87,170.86,379.73,14.71,95.71507662582144,1015.625,961.9466145833334,0.32966734074754134,0.505687058408327,0.47111786203725664,65.57976346335285,0.3830240514976229,66.96267617113283,0.36354166666666665,138,0.21807765000000004,0.0016161502645175,-4.6400055989598556e-07,34.607333333333344,0.016110727964792654,1.805556045344015e-05,62.031666666666666,0.46931924694770016,1.25,-0.0007079515809330476
S047,15698.0,15727.984375,R,-0.12691145833333337,128.31312615731485,-504.24,670.27,1174.51,9.705,98.57764082752593,906.25,886.4501953125,1.779951707658728,0.6446486109480283,1.0717955307437246,65.5602364769089,0.5943986527993815,75.2994023880668,0.04583333333333333,25,0.21800295833333333,0.0016021307603513114,-2.691114011261399e-07,34.64033333333334,0.01538036266007791,2.211806155546191e-05,62.50466666666667,0.3077632567773847,1.0700000000000003,0.0004874306877795919
S047,15728.0,15757.984375,W,3.7713072916666657,199.08366483667464,-1065.06,879.53,1944.59,8.075,14.151725744084365,828.125,821.5983072916666,27.288541090105728,15.27050928345357,21.85656117720845,66.23500797712967,9.45657672044008,146.03424255975034,0.084375,38,0.22986933333333334,0.09584723521776144,-2.270470060348866e-05,34.81066666666667,0.10797942190785988,0.00017673615905386297,65.231,2.022063879637172,6.5,0.003487257890423688
S047,15758.0,15787.984375,W,-3.622645833333334,224.63253635400395,-836.11,854.65,1690.76,4.805,0.0,828.125,828.125,14.200118249153087,16.63803840095332,32.40941161047976,65.95279893441256,6.116335726311159,144.54757002454244,0.05520833333333333,27,0.3157994166666666,0.06687142539400809,6.250158509700118e-05,35.06866666666668,0.03685406656289439,3.736112124596454e-05,76.78500000000001,4.119665641772399,12.650000000000006,0.007397814506785618
S047,15788.0,15817.984375,W,0.026458333333333545,86.04711543113515,-409.95,446.15,856.0999999999999,9.74,26.849135143291086,796.875,800.0,0.04564354645876384,0.415576699365539,0.5255608363532555,66.54194084075938,0.18903477161507673,67.2532527094415,0.09791666666666667,25,0.3451598666666667,0.001556015257708675,-1.517916210372223e-06,35.11433333333334,0.019610088106775996,2.656250720554002e-05,84.94699999999999,0.925783091946128,3.299999999999997,0.0012716322893967795
S047,15818.0,15847.984375,W,0.7816666666666668,66.24957014037692,-164.18,168.48,332.65999999999997,10.195,46.81806638926386,812.5,811.3199869791666,0.10204080746882048,0.362859017617954,0.4182833220438032,66.6746549437841,0.16063870639021394,67.2532527094415,0.007291666666666667,5,0.34312033333333336,0.0010590030872896037,-8.871530184335966e-09,35.146333333333324,0.01048279012900884,4.826390198130061e-06,80.93533333333335,2.567196568676077,7.950000000000003,-0.0046219456982274565
S047,15848.0,15877.984375,W,-0.039057291666666556,63.987336746852115,-131.27,100.49,231.76,12.53,33.39072293917899,796.875,799.0071614583334,0.03225804701500421,0.032258047015004204,0.12011279421166313,66.74995344630481,0.045257590200109395,67.3349834781297,0.003125,3,0.34171106666666673,0.0010483728164265927,-8.356547405747467e-07,35.16966666666666,0.01303414319734608,1.1979169916226066e-05,74.15733333333333,0.976674402699738,3.2700000000000102,-0.0015355559721017718
S047,15878.0,15907.984375,N1,-0.818822916666667,86.85277476119367,-725.26,251.21,976.47,11.010000000000002,43.45498221873257,781.25,788.2242838541666,1.4611100796759142,0.5868707845074019,2.580434361315078,66.58864138436701,0.3773882847913134,69.54854419756032,0.06041666666666667,41,0.34188189166666666,0.0019263128760918435,-9.819627229716592e-07,35.17366666666667,0.014019827229876772,6.701390706758398e-06,74.09866666666667,0.46892595956670585,1.5499999999999972,0.0008209030004619686
S047,15908.0,15937.984375,N1,-0.04250520833333358,76.79974018392042,-164.09,125.21,289.3,14.905000000000001,38.70008747486323,843.75,850.7161458333334,0.21358993356949718,0.4643497170476388,0.1356408400888169,66.46190770824674,0.20471227082417318,67.38694235532579,0.04791666666666667,42,0.339896275,0.0012220651371244531,-7.356163019792502e-07,35.17933333333333,0.014590712418827477,3.125000847711666e-06,74.95733333333334,0.37503718334171693,1.2299999999999898,-0.0006112501658122198
S047,15938.0,15967.984375,N2,0.2365833333333331,74.00940291818031,-158.2,125.52,283.71999999999997,15.88,46.44674421748278,828.125,844.6451822916666,0.39842898956052664,0.5680131062650657,0.4389806294764674,66.51878695247436,0.307786242911139,67.38694235532579,0.2,95,0.3384869916666667,0.0011766825506187059,-6.035025508633208e-07,35.17399999999999,0.015620499351814749,-9.513891469697893e-06,72.57900000000001,0.7592599467024901,2.739999999999995,-0.0013626045362968053
S047,15968.0,15997.984375,N2,0.2522708333333335,73.71726511044851,-154.55,146.84,301.39,14.255,26.116180626704693,812.5,825.4069010416666,0.500406735607812,0.3756418118811234,0.443107663036498,66.70021608360739,0.4004261064787433,68.21290200541243,0.046875,38,0.33833752500000003,0.0009868267575288924,-5.658204659887875e-09,35.17866666666667,0.014996295838937343,-3.333334237558143e-06,71.046,0.15228482086756592,0.5600000000000023,0.0001422917052657618
S047,15998.0,16027.984375,W,0.266802083333334,73.9958875707123,-148.09,126.4,274.49,14.5,34.83069018780675,828.125,834.2203776041666,0.43539174569831046,0.43714147015646504,0.3879197994860965,66.76045965294179,0.29648259296581386,67.38694235532579,0.025,24,0.3384229333333334,0.0013402589969438322,7.986829423510574e-07,35.169333333333334,0.013399834161495743,-1.2152781074431244e-05,72.27933333333334,0.28167278099872406,1.0500000000000114,0.00026138895979518147
S047,16028.0,16057.984375,N1,-0.7131354166666668,72.11080351663678,-154.55,124.4,278.95000000000005,12.52,29.57898098982766,812.5,809.5947265625,0.49223131418741184,0.4082150657809625,0.554961053438287,66.55382462857474,0.40297101911750205,67.38694235532579,0.34270833333333334,164,0.3390208250000001,0.0013557530973749114,-1.1444796941405444e-06,35.15366666666666,0.011100550536896724,-9.548613701337488e-06,72.736,0.36637503553963346,0.960000000000008,0.0006437501746284137
S047,16058.0,16087.984375,N2,0.7003333333333331,77.65517508775395,-160.58,125.1,285.68,15.465,31.090477580058838,890.625,880.0455729166666,0.4983468765578852,0.29720193985833193,0.37544967252245964,66.6220646506633,0.4214083722092818,67.38694235532579,0.022916666666666665,21,0.33866855000000007,0.0010128858758517599,-1.3377434184416853e-07,35.14766666666665,0.01054619467970215,-8.576391215382195e-06,72.28,0.5522499434133061,1.7299999999999898,-0.0009932641583290359
S047,16088.0,16117.984375,W,-0.058661458333333215,75.48766618509867,-158.76,135.06,293.82,12.84,31.60946414398783,875.0,879.1015625,0.7720703756333068,0.7528411175433292,1.0834690419806907,66.63198496064408,0.49836921169579335,68.83313155741209,0.04375,33,0.33886066666666664,0.0016036366241210043,-7.350010674373476e-07,35.12800000000001,0.013999999999999685,-1.3819448193209674e-05,70.23299999999999,0.8798414629920539,2.7299999999999898,-0.0015498268093063151
S047,16118.0,16147.984375,N1,-0.08029687499999874,111.15285527552338,-563.14,495.34,1058.48,8.315000000000001,35.55381623292168,828.125,820.654296875,15.001895677377927,14.498050635248251,12.671062148542333,66.39333343505055,5.564514089196448,150.16324450410627,0.03125,12,0.32333694999999996,0.01105837515931553,-1.6942040186100326e-05,35.100000000000016,0.018439088914585573,-1.9513894182370967e-05,69.21966666666667,0.808242881537199,2.480000000000004,0.0013882295432480307
S047,16148.0,16177.984375,N1,0.20748437500000005,62.91949993654893,-124.04,102.98,227.02,12.594999999999999,18.102439710208802,859.375,866.8538411458334,0.26731691553909065,0.23273500294803576,0.635727383046818,66.42246334118637,0.2604266155507369,67.512961718473,0.07604166666666666,58,0.31369586666666666,0.00106732949405929,-2.2456603313943625e-09,35.04,0.023237900077243853,-3.2708342206037554e-05,71.06599999999999,0.14976871057289187,0.5200000000000102,0.0002049306111465416
S047,16178.0,16207.984375,W,-1.273041666666667,89.92246545820237,-446.96,430.59,877.55,7.734999999999999,27.442965269017183,843.75,849.9186197916666,12.315726760976862,13.162767050089831,7.979724469188562,66.65978548037056,6.14800778390701,130.41855696180662,0.040625,17,0.31435799166666667,0.005940451366823671,2.751470147425704e-06,34.98033333333334,0.021982316125063926,-2.6215284889129366e-05,70.94933333333333,0.5144960857209917,1.7199999999999989,-0.0008708335695620581
S047,16208.0,16237.984375,W,-0.8768072916666664,165.31231485895225,-857.2,702.64,1559.8400000000001,1.3250000000000002,26.562958757016787,812.5,793.3268229166666,18.57993473103108,11.339464822318433,12.824484190339348,65.52037417563538,5.811657212138285,108.8622983406101,0.084375,31,0.3052083583333334,0.021814803603591393,-2.016382469721807e-05,34.966666666666676,0.02005547860865532,3.472223164113237e-07,70.95533333333333,1.1090017533299423,3.549999999999997,0.0019190977428108016
S047,16238.0,16267.984375,W,3.4394062499999998,205.40454455720212,-754.33,770.18,1524.51,8.18,0.0,765.625,765.625,17.78872426391224,13.310428079506767,7.143834678583384,64.34956869613936,5.141405477834646,90.97801932335085,0.12083333333333333,40,0.27848515833333326,0.046853771050115026,-2.7138752370538294e-05,34.94666666666667,0.014681810363697239,-1.4375003899469522e-05,75.54700000000001,0.833787143100684,3.0,0.0013740628727384099
S047,16268.0,16297.984375,W,0.7846145833333327,140.5525580019557,-432.51,424.86,857.37,11.795,0.0,765.625,765.625,22.26811740436032,11.672081332773898,16.442410513615815,66.29711905493984,7.076834627746053,140.92196422133776,0.06145833333333333,20,0.2985996,0.02905838936474858,4.035150530368524e-05,34.92933333333333,0.0131487219488794,5.3472236727503125e-06,76.411,0.152213665615147,0.5999999999999943,-0.00014982642953191013
S047,16298.0,16327.984375,W,-2.664739583333336,305.31760345877075,-2004.97,1153.33,3158.3,2.295,0.0,765.625,765.625,25.93277013015123,21.96017455515906,20.87667117395768,67.3735333050903,12.503988096652295,179.7470444819608,0.0875,35,0.17346953333333334,0.09852325471227029,-0.00010556548827188809,34.89666666666667,0.04133870932780645,-5.729168220802953e-05,75.46499999999999,0.18429595763336853,0.7199999999999989,-4.1145844494858876e-05
S047,16328.0,16357.984375,W,-1.571744791666667,140.6166507918762,-686.17,576.39,1262.56,2.0999999999999996,33.64643135759722,796.875,799.2919921875,29.616713397279536,9.937807417938911,10.282056072757692,63.56745165449952,4.283681067283203,86.54478609367523,0.10520833333333333,29,0.1628375333333333,0.053912528171711216,4.3337089446910106e-05,34.81966666666667,0.025097587312107632,-2.920139681027384e-05,75.114,0.5149019324104347,1.730000000000004,-0.0006706946263820055
S047,16358.0,16387.984375,W,1.8447916666666664,171.19407789893003,-1094.38,550.96,1645.3400000000001,10.325,0.0,828.125,828.125,26.56064043735972,13.879927647255787,7.41467084569504,64.40040496481842,3.5091141380779427,84.98235110892143,0.08958333333333333,33,0.2750793333333333,0.03025058902851682,3.276090298418591e-05,34.8,0.026708300832012984,-2.937500796848023e-05,71.95633333333333,1.69580754280143,5.280000000000001,-0.0029629521926411127
S047,16388.0,16417.984375,W,-0.662973958333333,147.5123271249282,-563.04,541.16,1104.1999999999998,7.75,17.2015027120424,828.125,828.1656901041666,29.377485414949245,17.210268977849548,13.404562183316127,64.49390058457318,7.463823576906756,131.96211577570284,0.06875,18,0.2982650083333334,0.06701807522993279,-9.564292959063785e-07,34.75733333333333,0.015040685563572628,6.180557232139626e-06,65.32866666666668,1.31561578315589,4.1499999999999915,-0.001755208809464193
S047,16418.0,16447.984375,W,-1.194260416666668,258.7027795573581,-968.68,1024.38,1993.06,-1.49,0.0,828.125,828.125,29.06212096527024,18.43288207234711,22.27530854241355,66.40700903190564,14.117025233256557,191.0026177831079,0.06458333333333334,17,0.15739246666666667,0.04137343320174057,-2.1168564770118494e-05,34.700333333333326,0.031035821597345595,-4.531251229180688e-05,68.30199999999999,3.2488709833827905,10.25,0.005613057078194735
S047,16448.0,16477.984375,W,2.139552083333331,213.9655477999208,-991.85,970.27,1962.12,13.73,0.0,828.125,828.125,17.064883806565966,11.78219211345087,5.913521666339262,64.55919685121661,4.97940527833033,149.21461054467824,0.04375,13,0.153783875,0.008834022066762209,7.343997217881219e-07,34.67399999999999,0.01907878402834033,-2.076389452145755e-05,84.60633333333334,5.050707200206939,16.61,0.009092120521951094
S047,16478.0,16507.984375,W,-1.6137916666666665,254.74561340903222,-1212.48,864.95,2077.4300000000003,8.344999999999999,0.0,828.125,828.125,21.92036305865539,23.151420342797305,18.68648126984489,66.44980422175672,12.325556872755765,183.30848316430968,0.06770833333333333,27,0.286273925,0.2595686785593928,-0.0002402356769302509,34.557,0.06972087205421316,-0.00010295141681624734,98.04966666666665,2.096914373284919,7.199999999999989,0.003347327296909531
S047,16508.0,16537.984375,W,1.4246770833333315,181.7487273837836,-699.84,625.88,1325.72,16.549999999999997,35.26932134840573,828.125,825.4475911458334,19.5617771154599,23.28790310883737,16.36661879978574,65.9067940779319,8.868525490129668,191.80458805774174,0.034375,15,0.16706539999999998,0.013871190118010784,1.0645081880718828e-05,34.51833333333333,0.025440562537455344,2.6736118363754904e-06,93.42766666666667,3.466733028210982,9.75,-0.006156703059001481
S047,16538.0,16567.984375,W,1.5907499999999999,212.3858517081391,-832.58,678.82,1511.4,5.484999999999999,0.0,828.125,828.125,15.797593950009446,29.302178057081164,25.393567970469082,67.25445586397535,11.553302187712081,186.33840183923442,0.0625,28,0.19308398333333335,0.11235411549886841,3.121863607276369e-05,34.43933333333333,0.06318930992572208,-7.416668678566998e-05,89.187,0.3318448432626308,1.4699999999999989,-1.2951392402180397e-05
S047,16568.0,16597.984375,W,-3.300203125000001,232.40248505356678,-1058.75,1205.92,2264.67,-3.09,19.106464654067963,828.125,837.98828125,16.323200380431597,31.16287410079857,25.30631129335213,66.33510315968543,8.177772544763783,149.62954253756175,0.08125,44,0.14492239166666668,0.02494023375936154,-2.9435873870408504e-06,34.39166666666666,0.027938424357066036,-1.2812503475611898e-05,96.48633333333332,3.1399835279115007,9.61999999999999,0.005502050103637723
S047,16598.0,16627.984375,W,1.7426822916666656,195.02275337162342,-866.77,679.32,1546.0900000000001,4.6899999999999995,0.0,875.0,875.0,22.547218874909063,28.092302579046603,29.274060450070383,67.21589183042074,10.605959901922056,138.2280724020993,0.09270833333333334,34,0.14897944999999999,0.03332052112383849,-1.159705002090116e-05,34.32533333333333,0.030521395046024313,-4.104167779993309e-05,96.05700000000002,1.6090103583673199,5.36999999999999,-0.002793646591158472
S047,16628.0,16657.984375,W,-2.6672968750000003,164.69135121472743,-964.28,556.77,1521.05,-2.36,82.85531430740137,703.125,764.794921875,11.968447377955458,16.469565787300596,22.178302059631704,66.47680007920198,5.283292177214123,98.60527369263775,0.09791666666666667,52,0.14595803333333332,0.01997102395218855,-2.697092094480277e-05,34.302,0.017587874611030077,-1.3472225876796578e-05,96.45666666666666,1.372851857347407,3.980000000000004,0.002326945075668696
S047,16658.0,16687.984375,W,-0.9477656250000009,224.649834964183,-1071.4,926.42,1997.8200000000002,-4.945,0.0,703.125,703.125,17.948107587492956,26.70237509918359,25.461854553947735,66.41962798109282,11.298216032626547,166.44819013735176,0.06354166666666666,26,0.131875775,0.01565090647133178,-6.5434312455054394e-06,34.27266666666667,0.022350739485653904,-1.2777781243973688e-05,97.64,0.33629352258604855,1.0600000000000023,0.0004743056842192055
S047,16688.0,16717.984375,W,3.3150104166666665,252.10471389942788,-849.16,958.07,1807.23,-12.82,0.0,703.125,703.125,21.74805464540162,27.79503782339874,27.52140027093941,66.58935069050607,11.84966770069099,191.34262462922368,0.0625,26,0.16352334166666668,0.17903045868582887,8.844554417468106e-05,34.196666666666665,0.02772884579078074,-3.909723282802539e-05,89.27666666666667,4.874720732741745,14.379999999999995,-0.008705488472625996
S047,16718.0,16747.984375,W,0.3727395833333323,333.3907053679269,-1389.44,1427.83,2817.27,1.525,0.0,703.125,703.125,26.561971481670096,24.84910448500302,39.84868057727884,66.67761079091962,12.386962671076416,221.12666053644458,0.08125,33,0.23083735833333333,0.06992256177608148,6.687786254282295e-05,34.11266666666667,0.03161574853701076,-3.77083435623746e-05,80.10733333333333,1.624873191633394,4.77000000000001,-0.0028817368928322745
S047,16748.0,16777.984375,W,-0.129572916666667,196.43578707500305,-807.52,673.11,1480.63,0.5249999999999999,33.185883078146425,734.375,740.9016927083334,23.218503508299808,15.149495165715644,15.49296852019355,66.46544465446841,7.295395252061181,127.98828071350908,0.06458333333333334,17,0.253064475,0.05307741817100164,6.771297865477935e-05,34.067666666666675,0.033434845429416216,-1.4131948277981433e-05,79.50766666666667,0.7120518863740831,2.3200000000000074,0.0007875349358547469
S047,16778.0,16807.984375,W,3.0670625,185.22083870543858,-548.3,673.83,1222.13,-0.485,3.103553506598532,765.625,766.2679036458334,27.40484769312417,22.069114526238298,35.222867670038475,65.77618678522627,10.190810909590274,151.32745950421557,0.07604166666666666,28,0.2806417666666667,0.014955466873205784,-5.363804840441857e-06,33.99933333333333,0.05078932521264267,-1.2361114464278272e-05,77.42233333333334,0.6158499997744775,2.5200000000000102,-0.0010737850135050515
S047,16808.0,16837.984375,W,-3.359552083333333,221.1227126316295,-883.24,765.08,1648.3200000000002,15.235,7.454284933142469,765.625,765.9830729166666,22.772940871514596,13.36302666953985,15.374370435111862,65.99648180443454,8.151611155896752,131.60927019021113,0.07083333333333333,25,0.3008309666666667,0.056689293161485875,7.664515099966126e-06,33.893,0.050999999999999476,-4.656251263089134e-05,75.05300000000001,0.4206831745308253,1.5600000000000023,-0.00016232643292275227
S047,16838.0,16867.984375,W,1.5025208333333324,197.8474138980477,-658.72,628.73,1287.45,7.265000000000001,0.0,765.625,765.625,28.593836729528455,15.281250852079049,21.134055602429868,66.44243095936316,11.396967500623134,185.1971922033377,0.07916666666666666,33,0.26136006666666667,0.01715771647914981,2.0496368407217937e-06,33.89399999999999,0.02690724809414682,1.6875004577637586e-05,76.24433333333333,0.2362298786257895,0.75,-7.788196557127866e-05
S047,16868.0,16897.984375,W,-0.8699687500000003,131.03095547863816,-745.25,664.31,1409.56,9.57,14.415738434208247,765.625,764.1682942708334,19.256739187184937,16.598737055318313,21.00045569838737,65.00003958885809,7.6012649241347825,181.02209809854708,0.026041666666666668,7,0.26233151666666665,0.0077190101923577115,-3.611918080489934e-06,33.92066666666666,0.015260697523014231,-6.3888906219871895e-06,76.50366666666666,0.18332999996969637,0.5699999999999932,6.190973901631533e-05
S047,16898.0,16927.984375,W,-1.481151041666667,89.0284162657614,-583.96,335.2,919.1600000000001,10.205,16.087975973382694,781.25,783.4635416666666,9.803357382663462,9.14247731706541,5.897903052498123,65.48947524321521,3.614710551109517,138.03622712896785,0.051041666666666666,19,0.2655880083333333,0.006355764333128152,-2.2212896650636078e-08,33.946666666666665,0.01468181036369724,1.493055960573023e-05,76.86766666666668,0.42625253339097363,1.2399999999999949,0.0006954515775422051
S047,16928.0,16957.984375,W,2.755640624999999,175.19888848048646,-652.09,603.27,1255.3600000000001,8.215,18.054517895477684,781.25,790.5110677083334,15.16164605403082,15.818433779051016,18.45321361348561,65.90814351122707,7.971038341196836,138.81282361511128,0.06041666666666667,27,0.2621287666666667,0.01430903329411957,3.056673138203435e-06,33.95333333333334,0.019379255804997744,-1.4652781752599163e-05,76.62933333333335,0.12785234539194912,0.480000000000004,-0.00017743060368668721
S047,16958.0,16987.984375,W,-3.1305312499999984,151.12189122157136,-893.89,436.99,1330.88,-2.5,3.4717983410972555,781.25,780.4361979166666,26.264547039813902,26.04917473017646,14.851342320026067,65.45983162352617,6.689156809314912,99.18669265581951,0.09583333333333334,44,0.2513669,0.010488974028632796,1.7739093353703704e-06,33.910666666666664,0.026574841903993895,-2.9236119041916938e-05,76.599,0.2423269141744956,0.75,-0.0004064931658238842
S047,16988.0,17017.984375,W,1.749036458333334,142.43903339659747,-764.66,733.02,1497.6799999999998,9.12,0.0,781.25,781.25,28.662097201220675,31.439023875149534,17.05393173014942,65.09378223548957,10.142553390476293,183.67906794188607,0.05416666666666667,26,0.24354104166666665,0.012242852624692113,-1.6212163686025273e-06,33.847,0.02002498439449997,-1.6215282176455304e-05,76.58133333333332,0.6937950385780784,1.730000000000004,0.0011068753002591433
S047,17018.0,17047.984375,W,0.5809114583333336,164.57517273097318,-526.8,578.49,1105.29,0.835,0.0,781.25,781.25,28.8041371329228,18.936298435478356,23.316030694060878,65.33244247578952,9.471507807506308,180.71247881648904,0.06145833333333333,23,0.25219966666666666,0.017604440192904615,1.6551821764274566e-05,33.794,0.02497999199359257,-3.3194453449015425e-05,77.07033333333335,0.3782986768267761,1.4000000000000057,0.0005458682036317832
S047,17048.0,17077.984375,W,-0.7815937500000011,89.42604641756577,-547.33,366.01,913.34,5.295,6.08556387781037,796.875,793.9615885416666,41.20164041062008,21.76528615034953,15.087193192820857,65.42004764134474,5.2643328102922125,105.69295151522641,0.03854166666666667,13,0.26623925,0.01974511905984616,-2.8453055027412924e-05,33.73133333333333,0.01927577639306834,-2.0694450058174165e-05,77.63933333333334,0.5124316756624446,1.3499999999999943,-0.0008870141295068688
