participant_id,window_start_time,window_end_time,sleep_stage,BVP_mean,BVP_std,BVP_min,BVP_max,BVP_range,BVP_median,SDNN,median_nni,IBI_mean,x_std,y_std,z_std,mag_mean,mag_std,mag_max,movement_density,burst_count,EDA_mean,EDA_std,EDA_trend,TEMP_mean,TEMP_std,TEMP_slope,HR_mean,HR_std,HR_range,HR_trend
S049,9674.0,9703.984375,W,0.137796875,29.693675648724543,-75.93,66.36,142.29000000000002,5.51,64.07594410493516,953.125,946.7936197916666,0.0,0.0,0.03225804701500421,63.35564942758729,0.015075653488932117,63.35613624582863,0.0,0,0.041401458333333335,0.0038818315563142643,-6.578674744649183e-06,32.41466666666666,0.0223208920570443,3.4652787177948536e-05,64.39666666666668,0.4073109650159471,1.519999999999996,0.0006497223984707016
S049,9704.0,9733.984375,W,0.30467708333333327,58.79726488022827,-352.57,456.58,809.15,7.45,22.36465383257072,968.75,970.2392578125,12.22536567846632,3.2084346236716437,14.59423387253983,63.52513657270034,1.8279492388387972,75.0,0.065625,24,0.0987063,0.09526215058761095,0.00014025057276762502,32.475666666666676,0.032008679378498994,4.2326400370659045e-05,63.33299999999999,0.553528981475526,1.7899999999999991,-0.0009860072119160187
S049,9734.0,9763.984375,W,-0.6567135416666672,84.59215923625118,-448.17,422.61,870.78,3.9450000000000003,32.469922967014035,953.125,934.9365234375,15.239259330971345,4.527346978057041,19.164661325121227,63.84156406997327,4.271332395498037,104.35516278555652,0.058333333333333334,22,0.2049051583333333,0.06641922653594562,-1.8769478832866423e-05,32.836999999999996,0.10309057506225532,0.000157256987103131,63.60066666666667,0.4534235204407563,1.5399999999999991,0.0007256251968384319
S049,9764.0,9793.984375,W,0.27261979166666656,30.76117045855768,-186.26,148.34,334.6,2.5549999999999997,31.178031277352925,937.5,926.4322916666666,3.203168021391305,0.9538021274163153,11.86596471874905,63.09489445745367,1.2118862994441404,86.05811989580066,0.034375,11,0.20045441666666666,0.011177901198036043,-5.180056526708043e-06,32.976000000000006,0.021694853460364198,2.597222926764112e-05,65.10266666666666,0.3239746217770077,1.1299999999999955,0.0005489584822478523
S049,9794.0,9823.984375,W,-0.1187604166666666,25.622101655701467,-54.22,41.39,95.61,2.6900000000000004,25.84261158479885,937.5,946.9807942708334,0.31598061649411346,0.20219874281810515,0.07198059875565235,62.961158655561455,0.2111494318042545,64.07807737440318,0.15104166666666666,121,0.19306854166666662,0.002184132859572391,-3.2270878979730537e-06,33.01233333333333,0.02777088803445432,4.4409734269133e-05,64.22066666666666,0.7265807288633223,2.0600000000000023,-0.0012304170004386404
S049,9824.0,9853.984375,W,0.10356249999999988,27.95217415731903,-59.08,46.6,105.68,4.42,41.4918123464229,921.875,903.857421875,0.4695306000411475,0.1496378730654628,0.1978371550810301,63.18282438341929,0.23601469021831106,64.07807737440318,0.021875,21,0.19216139166666663,0.0014215994354706738,1.3951216892148607e-06,33.123666666666665,0.04354946102485697,7.593752059937019e-05,64.14866666666667,0.6217702326601235,1.5500000000000043,0.0010845141830821917
S049,9854.0,9883.984375,W,-0.25682291666666673,29.882330729077587,-60.97,42.46,103.43,4.17,27.39369025025043,921.875,928.5319010416666,0.5011694223818484,0.10642856726723121,0.47391941232133544,63.25292511223367,0.25365280633060316,63.796551630946325,0.07604166666666666,58,0.199024225,0.002380609916465738,3.908686607174104e-06,33.26966666666667,0.05147707148710957,8.85764129167803e-05,65.109,0.2448176191916481,0.7399999999999949,0.00043218761723839554
S049,9884.0,9913.984375,W,0.2784322916666668,31.579983215417336,-64.07,49.17,113.24,6.154999999999999,30.46147077502969,921.875,924.8942057291666,0.4986690184185854,0.44807531105272924,0.2582808246366733,63.07847945128252,0.2817595561150114,63.796551630946325,0.0625,55,0.20600454166666668,0.0017497499864067923,2.5310872751430384e-06,33.45733333333333,0.05163547445528404,9.125002475315455e-05,65.13366666666667,0.4103452475930739,1.009999999999991,-0.0007119793598034262
S049,9914.0,9943.984375,W,-0.06883333333333332,29.794668078878736,-62.71,50.59,113.30000000000001,5.915,41.14090692829448,890.625,898.0712890625,0.49956578367840826,0.0,0.26339134382131846,63.28763226198707,0.2512024512091244,63.56099432828282,0.45208333333333334,121,0.20719982500000003,0.001186270877318921,9.54879382291499e-07,33.59733333333334,0.03405224743765932,5.659723757520571e-05,65.378,0.4243457709619997,1.1899999999999977,0.0007518057594959215
S049,9944.0,9973.984375,W,-0.13810416666666664,27.927280079803975,-58.06,47.52,105.58000000000001,4.4,36.033699720674335,890.625,884.5133463541666,0.29871687403515274,0.48693766534388727,0.3516824641001532,63.258532500424394,0.3604731512220664,64.07027391856539,0.017708333333333333,14,0.20749873333333338,0.0012429095819442737,-7.313578372823975e-07,33.699999999999996,0.03162277660168431,4.784723520161636e-05,66.54533333333333,0.6137791857735881,1.6299999999999955,0.001072639179860888
S049,9974.0,10003.984375,W,0.23809375,28.694934895515576,-57.21,43.3,100.50999999999999,5.86,34.10993063844933,921.875,916.3167317708334,0.4984306970103488,0.26836818808308854,0.19741988090108853,63.156045129123065,0.3152464350953258,64.07027391856539,0.07708333333333334,64,0.20819255000000006,0.0012793977479658126,1.374406622831654e-06,33.720666666666666,0.015040685563570053,-5.555557062596172e-06,67.21733333333333,0.26531658238581557,0.75,-0.0004681945714503508
S049,10004.0,10033.984375,W,-0.08399999999999995,27.230592738223674,-58.21,41.93,100.14,5.455,29.944869176635788,875.0,880.0944010416666,0.1242643282035874,0.0,0.09636964965693294,63.34479604106841,0.07459567980713887,63.419239982831705,0.0,0,0.2124298083333333,0.0014906936545102851,1.590431638029418e-06,33.772666666666666,0.022350739485654053,3.555556520062087e-05,66.46600000000001,0.19820191724602423,0.5699999999999932,-0.00030430563810374264
S049,10034.0,10063.984375,W,-0.24234374999999997,28.1920962757916,-60.13,50.86,110.99000000000001,5.41,40.178700334184065,875.0,874.7721354166666,0.0,0.0,0.0,63.35613624582865,2.1316282072803006e-14,63.35613624582863,0.0,0,0.21501285833333336,0.0011524157618949412,1.676083353972267e-07,33.843666666666664,0.023872345693058225,3.559028743226113e-05,67.289,0.4441872728178207,1.6000000000000085,0.0007971877162510075
S049,10064.0,10093.984375,W,0.3323281250000001,28.678552083951473,-57.98,43.88,101.86,6.835,24.014878923746885,859.375,870.1822916666666,0.0,0.0,0.0,63.35613624582865,2.1316282072803006e-14,63.35613624582863,0.0,0,0.21551453333333334,0.0012779926051777039,1.684097679062966e-07,33.91333333333333,0.020055478608655794,2.7847229776267308e-05,68.76633333333332,0.19027144352798264,0.6899999999999977,0.0002848264661530144
S049,10094.0,10123.984375,W,-0.05076041666666645,28.78423873994991,-58.36,43.32,101.68,6.279999999999999,22.242446643621047,859.375,858.6344401041666,0.03225804701500421,0.0,0.0,63.35668475496292,0.01698608010410335,63.88270501473775,0.0010416666666666667,1,0.2174568083333334,0.0010347906494861067,6.603007433541475e-07,33.96900000000001,0.021346350195446853,2.7951396471190212e-05,69.11300000000001,0.17268757917117078,0.45999999999999375,0.00030649313869713713
S049,10124.0,10153.984375,W,-0.11820312499999988,28.002309983776165,-67.34,76.97,144.31,4.99,27.776006933562876,859.375,860.3597005208334,0.04559597630883186,0.16532992583014122,0.07198059875565235,63.33494017266942,0.12049892553447135,63.88270501473775,0.0010416666666666667,1,0.21751018333333338,0.0010797813357599508,2.698763752919837e-07,34.02066666666666,0.017499206331208647,1.5555559775270553e-05,69.66366666666666,0.23999282396679303,0.6500000000000057,0.00042621539339610483
S049,10154.0,10183.984375,W,0.08877604166666675,29.65707446363362,-69.23,57.01,126.24000000000001,6.295,35.80625220437277,890.625,884.4563802083334,0.14058641445941905,0.42029668753816696,0.44346626296584146,63.16575442326005,0.14779425024188653,63.88270501473775,0.22604166666666667,31,0.21992239166666666,0.00128517358941528,1.0655130928583672e-06,34.035666666666664,0.017641491496531634,1.4201392741262765e-05,69.46766666666666,0.3625987987968085,1.0300000000000011,-0.000642951563300662
S049,10184.0,10213.984375,W,-0.21169270833333345,25.63310968217646,-52.82,41.7,94.52000000000001,5.085,31.47195197050447,859.375,861.279296875,0.38769596299448644,0.49670681989535387,0.1402154530138846,63.21687986986132,0.3244475091463584,64.29618962271404,0.33125,193,0.22351935,0.00123695669992931,6.71386900875355e-07,34.06133333333334,0.013349989596334832,1.0625002882216871e-05,68.863,0.12014297038667382,0.35999999999999943,-0.00014781254009671528
S049,10214.0,10243.984375,W,0.1175416666666667,27.421549509432612,-59.87,41.05,100.91999999999999,7.275,33.304774447979916,859.375,857.0963541666666,0.5006246098625196,0.33306629928922893,0.5982096770433702,63.04432043760169,0.2740782631484271,63.72597586541927,0.125,93,0.22594210000000003,0.0012207579776515895,7.824858893462153e-07,34.09066666666668,0.01209223809814432,1.215278107443016e-05,69.05666666666666,0.35674765435653427,1.0100000000000051,0.0006161807227052744
S049,10244.0,10273.984375,W,0.14561979166666664,28.548912217149798,-58.94,48.87,107.81,7.57,22.05318810589647,859.375,848.5107421875,0.17780185112615926,0.49539436976738266,0.47383698080141445,63.172276560570936,0.3128084953105499,63.72597586541927,0.17395833333333333,114,0.22658265833333335,0.002162273720322478,1.0654028497729051e-06,34.140333333333324,0.020733762053444175,3.288195336424276e-05,69.679,0.11714236352973935,0.46000000000000796,8.468752297296052e-05
S049,10274.0,10303.984375,W,-0.07208333333333321,31.00376500546166,-64.26,47.85,112.11000000000001,7.625,20.460827809397806,828.125,833.0485026041666,0.4568809849129202,0.4833052703778431,0.4469029225930641,63.25564666217465,0.23769451707111922,64.42049363362563,0.096875,68,0.22910157499999997,0.001882039663337358,2.1915676517924395e-06,34.24933333333333,0.04130644286575985,7.131946379108819e-05,70.70033333333335,0.3894396259013989,1.2399999999999949,0.000695659910932049
S049,10304.0,10333.984375,W,-0.4074583333333334,34.36623249703014,-87.97,63.13,151.1,7.5,28.314320599066736,828.125,824.072265625,1.2283184750062448,0.7510344428686344,0.976261203520861,63.29459538498756,0.5575497443081713,67.14908785679818,0.07083333333333333,44,0.2326556916666666,0.001954130735117422,2.0570697854464467e-06,34.36333333333333,0.03708848278853533,6.298612819719031e-05,71.78766666666667,0.29792262231809286,0.9699999999999989,0.0005362848676988034
S049,10334.0,10363.984375,W,0.37426562499999994,35.122373083594354,-72.72,93.26,165.98000000000002,9.39,18.098780862134802,828.125,824.8779296875,0.5453361285075063,0.5749396103553446,0.506057061999929,63.25368054480307,0.4044307142987115,64.41273166075166,0.090625,60,0.23635933333333342,0.001486993887755499,7.495514186066123e-07,34.455999999999996,0.025377155080899313,3.840278819520141e-05,72.587,0.1337447818296726,0.480000000000004,0.0002367014530982679
S049,10364.0,10393.984375,W,-0.4008489583333334,33.28412526481435,-69.44,59.67,129.11,7.755,23.97966264730473,812.5,816.6097005208334,0.5362621000318366,0.10699797992641417,0.34600899153377823,63.194958334007346,0.3151578912365363,64.13267497929586,0.053125,44,0.2392624333333333,0.002006689432595116,2.6329681621549985e-06,34.518,0.02196967607104487,2.791667423954904e-05,72.98666666666665,0.21153933177754095,0.5499999999999972,0.00036277787618757307
S049,10394.0,10423.984375,W,0.44722395833333334,38.06923003790606,-165.58,71.54,237.12,9.86,35.486674771909655,843.75,840.4541015625,0.6083110369772469,0.4806634231860054,0.2974701636532459,63.172900235275634,0.3641325728056936,64.59102104782058,0.140625,64,0.24318995833333332,0.0011640884516495634,5.038393293834982e-07,34.58666666666667,0.0278487980989416,4.43750120374937e-05,72.90233333333335,0.29341305734786566,0.9299999999999926,-0.0005071181931201689
S049,10424.0,10453.984375,W,0.07881250000000009,38.66243714223592,-116.53,98.72,215.25,5.875,21.88253121689136,812.5,807.4544270833334,0.6334292690497408,0.731062268162265,0.714281854528262,63.06843286303618,0.402938623156931,65.66582063752801,0.08125,60,0.24463101666666667,0.0016536412548440503,1.619502175429184e-06,34.639333333333326,0.01998888580075188,2.4166673222294046e-05,72.38666666666667,0.1974391608121908,0.5799999999999983,-0.00022597228352112814
S049,10454.0,10483.984375,W,-0.2162499999999999,32.19971500747328,-82.58,56.17,138.75,7.535,41.065307076095365,843.75,828.7353515625,0.5102933524508776,0.5341790170179115,0.5367151488840861,63.13831575539404,0.4377502014034072,65.06150935845248,0.16354166666666667,95,0.24566646666666667,0.001366643503462244,-3.039497352296611e-09,34.693,0.02354428451521394,3.4062509240047076e-05,72.56433333333332,0.26263641957826234,0.7999999999999972,0.0004080903884793817
S049,10484.0,10513.984375,W,0.23242708333333326,34.117466246302634,-103.65,128.12,231.77,6.545,71.52942379865097,843.75,856.5104166666666,0.5122193930311719,0.5503155660366352,0.7105846575571102,63.230688995980046,0.3760683807253558,65.70388116390082,0.24375,132,0.24560235000000002,0.001645295817626725,-1.3234231020570452e-06,34.74933333333333,0.018961950204439155,2.3958339832451415e-05,72.28733333333334,0.18781077948001015,0.6500000000000057,-0.00031034730640931707
S049,10514.0,10543.984375,W,-0.25698958333333344,31.71750555686704,-64.76,46.61,111.37,7.73,27.073128318179457,843.75,851.0823567708334,0.5062103465265754,0.3232256586177664,0.48101883878273305,63.28691491498212,0.4027826673883685,63.88270501473775,0.008333333333333333,8,0.24417195833333333,0.001458544242248827,7.658871435240699e-07,34.787333333333336,0.012364824660660214,1.166666983145207e-05,70.93466666666667,0.49960473265261357,1.5699999999999932,-0.0007181946392672106
S049,10544.0,10573.984375,W,0.14606770833333324,59.85670902947443,-470.81,278.59,749.4,9.505,24.45690685057051,843.75,837.1744791666666,1.897073770017626,2.2804269824360133,13.710553858592839,63.34347875293369,1.4435746638024267,84.29709366283039,0.028125,14,0.26133476666666666,0.03168127080987896,8.901274550041923e-06,34.81433333333333,0.01453348623772727,1.3437503645155847e-05,70.92833333333333,0.2104294550569274,0.8300000000000125,-0.0001332292028074022
S049,10574.0,10603.984375,W,-0.14234895833333336,29.295608559793475,-59.95,47.97,107.92,6.994999999999999,24.941618621487603,843.75,849.0478515625,0.05589199343873464,0.43480194844894615,0.3283415290855274,62.91931255904564,0.2987871546603072,63.34824385884742,0.2520833333333333,126,0.25268945,0.0016318276708954336,-1.8214063100603086e-06,34.80133333333333,0.013349989596334324,-3.958334407099967e-06,70.54766666666667,0.1341313618145385,0.4899999999999949,9.163196930120865e-05
S049,10604.0,10633.984375,N1,0.11254687499999992,29.64796991404039,-65.08,53.59,118.67,7.125,38.248724754811064,843.75,844.8649088541666,0.0853340555796258,0.4377181995556299,0.1288302069478359,62.854045948208764,0.287140396199693,63.84355879804947,0.24895833333333334,156,0.24822785000000003,0.0012730637366212298,-6.455752619290556e-07,34.81433333333333,0.01626516386500742,1.0104169407597857e-05,70.43399999999998,0.14174154883684137,0.5699999999999932,3.25694532794709e-05
S049,10634.0,10663.984375,N1,0.01651041666666666,29.233118317634336,-66.73,46.85,113.58000000000001,7.21,21.79124176748996,843.75,846.5250651041666,0.03225804701500421,0.4951051638428839,0.12801909579781012,62.96521824033592,0.33547272150017954,63.90618123468183,0.425,214,0.24658435000000004,0.0014123416822780567,-1.1292615910540378e-06,34.830999999999996,0.007000000000000739,9.375002543131075e-07,71.09066666666668,0.1930273440618056,0.5,0.0003131250849406112
S049,10664.0,10693.984375,W,-0.1996249999999998,30.583613393330563,-69.29,66.29,135.58,6.68,36.35106518913523,843.75,851.4567057291666,0.3929721152109057,0.4993746088859545,0.3877897102489956,63.08538164777384,0.3388667703562262,63.984373092185564,0.0010416666666666667,1,0.24427872500000003,0.0011805893652642237,-1.1189293399873355e-06,34.83533333333333,0.00921351664072424,3.958334407100386e-06,70.88966666666666,0.12697725080589292,0.45000000000000284,-0.0002046181110617739
S049,10694.0,10723.984375,N2,0.30961979166666664,29.642384015390164,-65.34,80.12,145.46,6.855,38.31644321911341,828.125,822.265625,0.5783633142445057,0.5097955404429854,0.07880950133074056,63.03649402025611,0.40748820131914243,65.74952471311104,0.00625,3,0.24349944999999998,0.001375434597075891,6.892145966836353e-08,34.83166666666666,0.010671873729054768,2.4305562148915634e-07,71.05933333333333,0.2456682496556887,0.7600000000000051,0.00042166678105110515
S049,10724.0,10753.984375,N2,0.11115104166666638,29.371066145778336,-60.54,51.79,112.33,6.045,40.24477580426335,843.75,855.3466796875,0.31340840191176894,0.49352469367184537,0.07198059875565235,62.969752532890986,0.3761860529956705,63.90618123468183,0.378125,220,0.24307251666666663,0.0011114991076869468,5.070096861462883e-07,34.82566666666666,0.010857664983267625,-8.92361353179539e-06,71.47966666666667,0.17468988395312512,0.46000000000000796,-0.0002635070159252998
S049,10754.0,10783.984375,N2,-0.08873958333333333,29.24849938413678,-64.2,76.69,140.89,5.25,84.25165862800522,859.375,837.7685546875,0.09090593428863095,0.18742764807756856,0.1462753717308556,62.78367286088304,0.15140045448415324,63.90618123468183,0.05625,39,0.24267762499999995,0.0012696448260734164,-7.901697021944698e-07,34.81766666666667,0.014533486237727036,-1.4409726131109585e-05,71.35833333333333,0.3412241036165077,1.1899999999999977,-0.0005296181992236867
S049,10784.0,10813.984375,N2,0.013479166666666754,28.772956633203908,-58.52,47.96,106.48,5.87,26.43189077590079,859.375,854.3619791666666,0.0,0.045595976308831845,0.05581428468591172,62.75641893427765,0.040917137044059027,63.41135544995076,0.005208333333333333,5,0.24077802499999995,0.001064945667334727,-7.91712454349084e-08,34.77733333333333,0.016719914938645473,-1.2430558927560194e-05,70.22333333333333,0.16990847209273893,0.4899999999999949,0.000216250058661584
S049,10814.0,10843.984375,N2,-0.4203229166666667,28.01059150682812,-59.02,47.07,106.09,4.33,31.576736269495324,859.375,869.9625651041666,0.0,0.07198059875565237,0.055814284685911715,62.75847477643703,0.054867130262147706,63.41135544995076,0.008333333333333333,8,0.24222939166666663,0.0011986227116697553,9.273550692694972e-07,34.757333333333335,0.013148721948878813,-6.5972240118340844e-06,69.81866666666669,0.2785885057850651,0.8999999999999915,-0.000493472356085165
S049,10844.0,10873.984375,N2,0.45646354166666664,27.20707912136801,-57.62,43.48,101.1,6.135,48.940406384970466,859.375,868.994140625,0.0,0.04559597630883184,0.11557806855349137,62.76162698057478,0.06496474315677787,63.41135544995076,0.015625,14,0.2399348333333333,0.002426349161921171,-3.1752695245414348e-06,34.73800000000001,0.015143755588801345,-1.0972225198628884e-05,69.88100000000001,0.14367440041055732,0.5300000000000011,0.00015413198625542125
S049,10874.0,10903.984375,N2,-0.34546354166666665,28.237567265924824,-67.65,47.61,115.26,5.34,31.6936273997943,875.0,876.5706380208334,0.0,0.4996863165332382,0.11110243021644485,63.088035169689554,0.3272767860381192,63.41135544995076,0.0,0,0.23064901666666662,0.0011523627682818594,-8.976143927990462e-07,34.693666666666665,0.017978382080215925,-2.4756951160197508e-05,68.807,0.32131137546000477,1.0999999999999943,-0.0004134376121521308
S049,10904.0,10933.984375,N2,0.2892656249999999,27.780924042562194,-59.87,45.87,105.74,5.84,53.16806369249512,890.625,891.6829427083334,0.0,0.4959460218584501,0.03225804701500421,63.0401103246521,0.32709364972595595,63.41135544995076,0.43645833333333334,239,0.2307557416666666,0.0011845450990136386,4.6351249552747965e-07,34.667666666666655,0.017451520150278566,-2.1562505849205373e-05,68.48766666666667,0.4164027163963054,1.0900000000000034,-0.0006984376894633483
S049,10934.0,10963.984375,N2,-0.05131250000000005,26.341874791824843,-57.42,42.53,99.95,5.34,27.33785898842813,859.375,861.5885416666666,0.0,0.48858053327982676,0.0,63.01252207103089,0.3214222267422037,63.41135544995076,0.39375,227,0.23076638333333324,0.0010412092023486742,8.980861811214713e-08,34.63699999999999,0.012423096769054709,-6.840279633321121e-06,68.246,0.2983242084265592,0.7999999999999972,0.0005294445880654799
S049,10964.0,10993.984375,N2,-0.11298437500000007,27.064997856236552,-56.36,44.04,100.4,4.615,21.026705720293137,859.375,859.9934895833334,0.0,0.47889031886226296,0.0,62.987851965118324,0.31504733031562243,63.41135544995076,0.35625,214,0.23077704999999993,0.0010964792280294268,-4.179766758834311e-07,34.614000000000004,0.016653327995728596,-1.5555559775270132e-05,68.61033333333333,0.23248631978868978,0.8800000000000097,0.00032642369965920655
S049,10994.0,11023.984375,N2,-0.15671354166666662,26.568869878997642,-54.55,43.99,98.53999999999999,5.275,26.300713531781145,859.375,862.5651041666666,0.0,0.4721359194012767,0.0,62.97414635072244,0.3106038169802003,63.41135544995076,0.33541666666666664,204,0.23027552499999995,0.0013622842273335145,-6.756050009779197e-07,34.58066666666668,0.01691810338726703,-2.3888895369168746e-05,69.85300000000001,0.1766003020004964,0.7000000000000028,0.00012392364472754936
S049,11024.0,11053.984375,N2,0.15988020833333333,27.305593828162145,-56.66,42.75,99.41,5.9,50.43255673785695,875.0,876.8717447916666,0.0,0.4530842893589325,0.0,62.943308718331735,0.29807033082148804,63.41135544995076,0.28854166666666664,192,0.23068097499999993,0.0010941266262983493,1.7928064759132195e-07,34.549666666666674,0.015595583420385927,-1.822917161164582e-05,69.44833333333332,0.15862079168745802,0.5,-0.00019350699693657791
S049,11054.0,11083.984375,N2,-0.047541666666666656,28.30796734685774,-64.51,52.38,116.89000000000001,5.03,30.855099667582007,875.0,884.27734375,0.0,0.44545837035824365,0.0,62.93302950753483,0.2930534713700837,63.41135544995076,0.27291666666666664,186,0.2322073166666666,0.0013596206945525517,7.866629738126582e-07,34.52633333333333,0.016224124698183406,-1.7465282515537843e-05,68.61066666666666,0.33466334659707914,0.960000000000008,-0.0005818751578437418
S049,11084.0,11113.984375,N2,-0.09125520833333332,27.041764994122865,-59.06,61.69,120.75,4.745,40.6365500439329,875.0,889.794921875,0.0,0.40385377708260806,0.05581428468591172,62.88697212035846,0.26533789763863086,63.41135544995076,0.203125,140,0.23249552499999998,0.0011333110117593532,6.691336450557869e-07,34.498666666666665,0.0154344492037199,-1.2638892317407486e-05,68.071,0.3017543150754718,0.8400000000000034,-0.00044197928656122343
S049,11114.0,11143.984375,N2,0.17846874999999993,24.84504387718887,-57.07,39.86,96.93,5.72,35.19928641023433,906.25,898.5921223958334,0.1476045709827443,0.42872018644319615,0.1767766952966369,62.908124349027915,0.3013429174668983,64.47480127925948,0.240625,130,0.23275172499999996,0.0010584411884346752,-3.2608797908202657e-07,34.47466666666667,0.011175369742827509,-7.013890791530222e-06,67.59266666666666,0.19085654880622324,0.5799999999999983,-0.00024881951194105596
S049,11144.0,11173.984375,N2,-0.0463802083333334,26.614267317847737,-56.4,44.87,101.27,4.98,28.175505278392105,890.625,889.2985026041666,0.0,0.4699106002445808,0.1592592172022985,62.95735483734844,0.32212350250287597,63.41135544995076,0.32395833333333335,209,0.23228202499999995,0.0011901309134047704,-4.0614051815877954e-07,34.454,0.022150996967781535,-3.194445310993101e-05,67.18466666666667,0.061358690410478416,0.18000000000000682,6.513890655894774e-05
S049,11174.0,11203.984375,N2,-0.04482291666666661,26.45100564545971,-54.21,47.91,102.12,4.905,49.17422640597689,906.25,907.7311197916666,0.0,0.47729594061814057,0.14282613750835507,62.97430295283754,0.32061285725134586,63.41135544995076,0.34270833333333334,209,0.23181239999999995,0.001546690441986806,1.0799226019755335e-06,34.42733333333333,0.016918103387267555,-1.9722227572220944e-05,67.20466666666668,0.10926217196368429,0.4199999999999875,-3.152778633023741e-05
S049,11204.0,11233.984375,N2,0.18609895833333337,27.227758257517102,-60.85,44.79,105.64,5.97,38.15702580204724,890.625,899.6663411458334,0.0,0.4795107460271934,0.1496378730654628,62.97809934701724,0.3205505221107436,63.41135544995076,0.346875,215,0.23299724166666666,0.001116516330645112,-4.614456546890344e-07,34.39533333333333,0.018571184369578598,-1.013889163923942e-05,66.76766666666667,0.07688447321938123,0.22999999999998977,3.579862082210839e-05
S049,11234.0,11263.984375,N2,-0.16266145833333331,27.772607109831373,-64.93,54.28,119.21000000000001,5.585,27.358567597812247,890.625,892.2444661458334,0.03225804701500421,0.46599188565896726,0.17950549357115012,62.94756327377263,0.32130394912638044,63.41135544995076,0.31145833333333334,198,0.23215392499999996,0.0010393196665968588,-3.975326599209686e-08,34.373,0.014177446878757561,-6.145835000498698e-06,66.376,0.25591144301626423,0.789999999999992,9.583335932979384e-05
S049,11264.0,11293.984375,N2,0.03165104166666666,27.804911128197805,-59.3,45.0,104.3,5.5,31.159476457187775,921.875,909.5458984375,0.0,0.4622359888357893,0.18742764807756854,62.93928914025325,0.31630552676839,63.41135544995076,0.296875,193,0.2315134666666666,0.0013019607964741334,-1.0760028960511286e-07,34.358,0.018330302779821988,-1.9791672035499248e-05,66.83766666666666,0.1942967375490956,0.5699999999999932,-0.00026253479343934296
S049,11294.0,11323.984375,N2,-0.23698437500000008,27.385464626934656,-57.89,43.98,101.87,5.575,35.97312672450384,890.625,889.2415364583334,0.0,0.46837484987987976,0.2021987428181051,62.94651881570818,0.324900985473382,63.41135544995076,0.3125,202,0.23163089999999995,0.001298345507431159,-1.3453562677290235e-07,34.32666666666666,0.009775252199076134,-1.1111114125193034e-05,66.37933333333334,0.09626121868240797,0.29999999999999716,-2.7500007459857172e-05
S049,11324.0,11353.984375,N2,0.07066666666666667,28.13067272927167,-60.87,45.95,106.82,6.765000000000001,33.78351027504005,906.25,906.8929036458334,0.0,0.45161265821005897,0.21578094200034334,62.917428613014046,0.31670447783431105,63.41135544995076,0.27291666666666664,182,0.23239944999999995,0.0010698459223177925,6.549559068348293e-07,34.317,0.014177446878757511,-1.767361590538585e-05,66.461,0.10309704166463664,0.28000000000000114,-7.39236311641778e-05
S049,11354.0,11383.984375,N2,0.1759947916666667,28.431901251974974,-58.16,43.35,101.50999999999999,6.5,27.24693840902189,906.25,893.0582682291666,0.05581428468591173,0.4459878528957438,0.21578094200034334,62.911677665417116,0.31783904100946425,63.984373092185564,0.26666666666666666,180,0.23241012499999997,0.0012582781791168729,-7.341675168640198e-07,34.298,0.013266499161422174,-5.833334915726602e-06,66.898,0.1707903197881344,0.5200000000000102,-3.70833433928325e-05
S049,11384.0,11413.984375,N2,-0.28464062500000004,28.615222412642826,-57.67,45.26,102.93,5.574999999999999,29.190231068403616,906.25,902.2623697916666,0.03225804701500421,0.44807531105272913,0.22219509383022437,62.91168340603414,0.32159656755139276,63.41135544995076,0.271875,194,0.23255956666666663,0.0010545235079830579,-1.737235714310902e-07,34.28333333333333,0.013984117975601158,-1.0277780565803328e-05,66.85900000000001,0.10080839912097357,0.29999999999999716,0.0001714931020760385
S049,11414.0,11443.984375,N2,0.05998958333333329,28.70799824308361,-59.47,45.64,105.11,6.529999999999999,44.54272310165674,875.0,884.7249348958334,0.03225804701500421,0.4540507784103008,0.22219509383022434,62.91993245595995,0.32083184188875247,63.984373092185564,0.27708333333333335,191,0.2316735833333333,0.0010482496091368519,-5.325882521127003e-07,34.26200000000001,0.013266499161422673,6.944446328248145e-07,67.08966666666667,0.2349110942936122,0.6000000000000085,0.0003914931617548721
S049,11444.0,11473.984375,N2,0.372640625,29.20358833288613,-61.29,51.66,112.94999999999999,7.2,36.056475491111705,890.625,889.3473307291666,0.04559597630883185,0.4525966747557918,0.23632521950693286,62.914884721016705,0.3316457063059925,63.984373092185564,0.28229166666666666,198,0.23179099999999994,0.0013173390667048002,2.020990131561999e-07,34.25599999999999,0.014742229591665747,-5.208334746184852e-06,67.191,0.046357307945994984,0.1799999999999926,-1.1423614209964023e-05
S049,11474.0,11503.984375,N2,-0.24146354166666661,28.748844132448106,-63.76,49.11,112.87,5.335,47.19432149931818,890.625,897.021484375,0.04559597630883185,0.405366293119226,0.20453835214941968,62.86975345814344,0.2874748318125136,63.41135544995076,0.20208333333333334,159,0.23239946666666664,0.0012135311693108242,-7.472050638034595e-07,34.23799999999999,0.014236104336042577,-5.555557062597555e-06,67.49499999999999,0.22507406188482262,0.6499999999999915,-0.00030753480564637675
S049,11504.0,11533.984375,N2,0.017369791666666665,28.371112580785187,-60.19,44.93,105.12,6.640000000000001,29.29265988014925,875.0,880.3955078125,0.03225804701500421,0.3894760881798636,0.21578094200034334,62.85291409764449,0.2771541703116673,63.41135544995076,0.178125,142,0.23150280833333328,0.0010874731743498612,-2.618262428999145e-07,34.228,0.01939071942966505,-2.173611700740966e-05,67.542,0.21681635854642822,0.6299999999999955,0.00032368064335954995
S049,11534.0,11563.984375,N2,-0.22982291666666682,28.36956025261891,-60.75,46.75,107.5,5.705,45.59776282799345,890.625,888.4602864583334,0.09090593428863095,0.39999999999999997,0.20453835214941965,62.868557341949476,0.2899673694444182,63.984373092185564,0.2,153,0.2313534083333333,0.001459682810840731,4.991531301956206e-07,34.210666666666654,0.01459071241882528,-1.5277781922138808e-06,67.53666666666666,0.1271569458932084,0.4299999999999926,0.00016555560046538465
S049,11564.0,11593.984375,N2,0.2919010416666666,28.329006185147477,-57.6,45.8,103.4,7.01,27.88466327206665,890.625,890.5354817708334,0.07880950133074056,0.32834152908552733,0.2582808246366733,62.80292809906179,0.25725574319734623,63.984373092185564,0.11875,97,0.2322073333333333,0.0012549892783959937,4.2365376075677263e-07,34.188333333333325,0.01771690968789226,-1.0451391724010851e-05,67.70733333333334,0.0985201615011978,0.29999999999999716,-0.00010437502831353645
S049,11594.0,11623.984375,N2,-0.0648541666666666,28.092579793566472,-56.32,43.72,100.03999999999999,6.355,30.504618559065367,875.0,878.6539713541666,0.08507936450096985,0.3388075878684275,0.25654623798103576,62.810197234996394,0.2660638410543265,63.984373092185564,0.13333333333333333,115,0.2319617916666666,0.001371598294544445,1.1850673787617705e-06,34.163,0.010049875621121696,-5.72916822080303e-06,67.79066666666667,0.12236375643502162,0.3200000000000074,0.00018645838391340887
S049,11624.0,11653.984375,N2,0.23348958333333333,27.33740825525483,-54.79,41.46,96.25,6.9350000000000005,31.386774412932798,890.625,893.8069661458334,0.11987768650679835,0.31340840191176894,0.2650647686834714,62.79749291851281,0.25594559838341435,63.41135544995076,0.11979166666666667,106,0.23259159999999998,0.0010248000000000034,-4.281120952995063e-07,34.144999999999996,0.014083086782850113,-1.7187504662406896e-05,67.65666666666667,0.10228500487472512,0.28000000000000114,-0.00017138893538111606
S049,11654.0,11683.984375,N2,-0.20197916666666677,28.17097812243242,-60.01,49.74,109.75,5.535,26.276144450313996,906.25,899.6826171875,0.11557806855349137,0.3318963165365888,0.26170307270624255,62.808176310013344,0.2674514478272119,63.984373092185564,0.12916666666666668,111,0.232730375,0.0011622460372234754,-1.8984315045658425e-07,34.12266666666667,0.014126413400278346,-1.3680559266645278e-05,67.27466666666666,0.2439089083152878,0.6499999999999915,-0.0004289584496957595
S049,11684.0,11713.984375,N2,0.11921354166666671,28.1478407615528,-58.93,46.18,105.11,6.73,36.47910480069198,890.625,893.5384114583334,0.11987768650679834,0.30815732589052625,0.27480856657660596,62.791738193016165,0.24729813258684957,63.41135544995076,0.10833333333333334,99,0.23184437499999996,0.0011922471015027353,5.842790213430524e-07,34.098000000000006,0.01423610433604078,-1.6250004408094453e-05,67.204,0.13303132463195783,0.39000000000000057,0.00021645839205143019
S049,11714.0,11743.984375,N2,0.03325520833333317,28.00246733692769,-60.99,49.08,110.07,6.475,33.52097210520487,906.25,904.7281901041666,0.11987768650679834,0.318518434404597,0.29292696461272083,62.79110580301374,0.2640840170590975,63.984373092185564,0.11770833333333333,99,0.23188705833333328,0.0011557871365137095,-5.036943640663973e-07,34.07000000000001,0.01632993161855591,-1.2222225537713914e-05,66.86399999999999,0.16829735589128986,0.5499999999999972,-0.00029888896996770796
S049,11744.0,11773.984375,N2,-0.4764583333333333,28.10129042963621,-57.85,44.09,101.94,5.87,33.469933519077344,890.625,898.3235677083334,0.1529193630552463,0.31340840191176894,0.3068216744797465,62.788678443976856,0.27873390932677217,63.984373092185564,0.121875,103,0.23148144999999995,0.0011059862555655962,3.997123480122484e-07,34.05,0.015491933384829336,-6.11111276885535e-06,66.64733333333334,0.11230711860291241,0.29999999999999716,-0.00015618059792225417
S049,11774.0,11803.984375,N2,0.3993385416666666,27.691826639559,-60.19,48.03,108.22,6.845,26.786714338374438,890.625,899.3896484375,0.1496378730654628,0.32953401179628716,0.3108009366495253,62.795497569664306,0.280374710491292,63.984373092185564,0.13125,105,0.2318444166666666,0.001422272674181091,4.975543884424893e-07,34.03166666666666,0.01771690968789041,-7.326390876299778e-06,66.60133333333333,0.13788239755514617,0.4200000000000017,0.00023312506323921875
S049,11804.0,11833.984375,N2,0.10938020833333344,28.85580171446651,-63.04,51.73,114.77,6.155,38.333581978917536,906.25,904.931640625,0.1821904480893551,0.31598061649411346,0.285583892616902,62.803697095189165,0.2791466324244286,63.984373092185564,0.13125,106,0.23163087499999996,0.0011533860264636784,-2.707142661442789e-07,34.01833333333333,0.016749792701868188,-1.69791712725618e-05,66.79,0.07343931735339765,0.20999999999999375,3.1597230793517546e-05
S049,11834.0,11863.984375,N2,-0.07936979166666666,28.549061717811686,-60.94,46.65,107.59,6.43,32.93797555733368,906.25,910.498046875,0.1899835519196333,0.31725377318043396,0.318518434404597,62.79400161103378,0.2919532042739079,63.984373092185564,0.13645833333333332,112,0.2314814416666666,0.001093569040617569,2.249349568508527e-09,33.996,0.015620499351813446,-1.090278073534646e-05,66.33833333333334,0.16474390900896801,0.5,-0.0002726736850785796
S049,11864.0,11893.984375,N2,0.04523958333333329,27.98856337202929,-56.4,44.2,100.6,6.15,44.88127269488428,906.25,910.44921875,0.1821904480893551,0.3121091305537215,0.3342289400620479,62.782880068041784,0.2860862839784249,63.984373092185564,0.12395833333333334,104,0.23203652499999994,0.0010885769377379844,-5.548254543254832e-07,33.977000000000004,0.014410644214145146,-1.0416669492248499e-07,66.183,0.14238796765644618,0.4200000000000017,-0.00017815977055115313
S049,11894.0,11923.984375,N2,0.05855208333333349,28.183297707585083,-61.72,45.98,107.69999999999999,6.175,45.19109722596776,890.625,904.1341145833334,0.19249988726547926,0.3094837070518504,0.3318963165365888,62.78496648767791,0.2796273850940584,63.984373092185564,0.11979166666666667,100,0.23125734999999994,0.0012678667822370016,-9.50824910705545e-07,33.95733333333333,0.0131487219488764,-1.60416710182463e-05,66.10533333333333,0.13800322057433556,0.3299999999999983,0.00023881950922838082
S049,11924.0,11953.984375,N2,-2.4860781249999997,53.52799728767472,-282.48,169.98,452.46000000000004,4.08,39.72900089735425,937.5,930.3059895833334,5.115864147162454,2.9139205822606464,22.33116338863541,63.06895226806823,1.4655663779338162,79.15175298121956,0.06666666666666667,29,0.23388301666666664,0.016646447532923922,7.455622248161419e-06,33.93666666666666,0.01398411797560364,-6.944446328247184e-06,65.84433333333334,0.19109654337242385,0.5999999999999943,-0.0002757292414630102
S049,11954.0,11983.984375,N2,2.2828645833333336,33.69270351621642,-93.01,249.06,342.07,7.470000000000001,51.077060365127785,906.25,896.8017578125,0.33993463423951903,0.1874276480775686,0.2363252195069329,62.897478460449,0.22106556498171134,64.10928169929842,0.121875,95,0.245303425,0.0018705082226607977,-2.4124800381076435e-06,33.90399999999999,0.01562049935181281,-1.6458337797942237e-05,67.39166666666667,0.6131236054463686,1.9499999999999886,0.0008694794025280498
S049,11984.0,12013.984375,N2,0.10584375000000006,28.28929472168908,-58.57,44.75,103.32,6.52,36.15813779687947,890.625,898.5514322916666,0.17116012950028855,0.06441510347391795,0.0,62.83766806050751,0.10884722079545844,63.53739056650029,0.034375,32,0.24269897499999998,0.0013227352812921385,-1.2298603596626385e-06,33.857,0.022531459488160686,-3.43402870931756e-05,67.897,0.1239932793877695,0.5,0.00020364588857581744
S049,12014.0,12043.984375,N2,-0.0182968750000001,27.758243881799306,-59.27,45.38,104.65,6.885,35.505869669698576,906.25,908.6344401041666,0.1462753717308556,0.0,0.03225804701500421,62.83026883961894,0.0855426280270756,63.39558344238185,0.022916666666666665,21,0.24115157499999995,0.0013245159660702495,-6.18054638144163e-07,33.806000000000004,0.016653327995728596,-2.2222228250386963e-05,67.03,0.5894573775940031,1.759999999999991,-0.0010223613884443857
S049,12044.0,12073.984375,N2,-0.37907291666666665,27.968376365751908,-62.14,45.91,108.05,6.195,46.4273025819062,890.625,901.6764322916666,0.17116012950028855,0.05581428468591172,0.07198059875565235,62.83902151781664,0.11217404650965501,63.796551630946325,0.0375,32,0.24135428333333328,0.0012784101531676875,1.188646589802138e-06,33.760666666666665,0.01768866554856372,-2.2777783956649376e-05,66.632,0.22350838910430293,0.6000000000000085,0.00037250010104712087
S049,12074.0,12103.984375,N2,0.27696354166666665,28.35429417615324,-61.96,44.78,106.74000000000001,7.390000000000001,33.63914084626717,906.25,913.28125,0.1899835519196333,0.0,0.07198059875565235,62.84099214322302,0.11327601415898868,63.39558344238185,0.042708333333333334,40,0.2417064583333333,0.0012825552612904813,-5.31986038407672e-07,33.712666666666664,0.022201101073795262,-2.3194450736341563e-05,66.133,0.193995704419797,0.75,-0.00016635421179313366
S049,12104.0,12133.984375,N2,0.12017708333333325,27.935964287953407,-60.02,43.76,103.78,6.995,40.55230573293834,921.875,914.8763020833334,0.1899835519196333,0.0,0.07198059875565235,62.84099214322302,0.11327601415898868,63.39558344238185,0.042708333333333334,41,0.24070335833333328,0.0012453152599230558,-5.864317997048092e-07,33.65866666666666,0.012310790208412938,-1.861111615969918e-05,65.75666666666666,0.2098306195217679,0.6500000000000057,-0.00036916676680956185
S049,12134.0,12163.984375,N2,-0.20359375,28.291247573630628,-61.11,44.6,105.71000000000001,6.895,35.509152360906555,921.875,925.5615234375,0.16827350421923892,0.0,0.11110243021644485,62.839122715374224,0.10640972138583024,63.39558344238185,0.041666666666666664,39,0.24074607499999998,0.0010705826308020352,6.013449981947169e-07,33.602000000000004,0.020396078054370752,-2.944445243176228e-05,65.34700000000001,0.12696850003051868,0.3299999999999983,-0.00021704866998932925
S049,12164.0,12193.984375,N2,0.03397395833333331,27.64579847880274,-57.48,43.17,100.65,7.0600000000000005,35.117343048403725,906.25,908.1868489583334,0.20219874281810518,0.0,0.10642856726723118,62.84652973986923,0.12563036681245635,63.796551630946325,0.053125,48,0.24043654166666664,0.0010319885326868846,-2.103665935239246e-07,33.53766666666666,0.024177583741050855,-3.6770843308062056e-05,65.18966666666668,0.04028923208777052,0.10999999999999943,-5.913196048501572e-05
S049,12194.0,12223.984375,N2,-0.1280312499999999,27.796371980722412,-59.94,45.93,105.87,6.67,30.529610258260103,921.875,914.0869140625,0.2263462809256845,0.0,0.1496378730654628,62.85778592458885,0.14719145772330416,63.796551630946325,0.07395833333333333,65,0.2400416583333333,0.001152531767427937,-5.559022775342567e-07,33.47266666666667,0.020154955277107874,-2.9583341358328063e-05,65.66266666666667,0.2125234627569904,0.6799999999999926,0.00030652786092878065
S049,12224.0,12253.984375,N2,0.2794531249999999,27.959883850998818,-60.49,44.95,105.44,7.885,51.29984223042222,921.875,922.55859375,0.23632521950693283,0.0,0.17399263633843817,62.864174156567806,0.15405392793837594,63.796551630946325,0.08854166666666667,79,0.23966807499999998,0.001502537776355392,-1.1590172414868912e-07,33.40933333333333,0.020319667538837793,-3.2291675426344235e-05,65.85400000000001,0.10738094182240514,0.37000000000000455,-1.250000339083107e-06
S049,12254.0,12283.984375,N2,-0.22132291666666656,27.06749271150528,-60.99,44.52,105.51,6.369999999999999,31.824847723127178,890.625,897.8352864583334,0.2242827108249764,0.0,0.1462753717308556,62.8567734040038,0.1406671166978037,63.39558344238185,0.075,68,0.2399028583333333,0.0012239791208447548,6.306475235046472e-07,33.34,0.020976176963402017,-2.8055563166114282e-05,65.55166666666668,0.22286144175747982,0.6899999999999977,0.0003278820333881396
S049,12284.0,12313.984375,N2,0.14369270833333336,26.763767023163147,-59.47,44.95,104.42,7.37,43.068998897418055,906.25,917.333984375,0.23437268517375393,0.0,0.17950549357115012,62.86441084033705,0.15550894073124627,63.796551630946325,0.08854166666666667,77,0.239732075,0.001319332850108346,3.7054849461493563e-07,33.28066666666667,0.020483055327649817,-2.7083340680159798e-05,65.77966666666666,0.18447191897112536,0.5100000000000051,-0.000176909770212069
S049,12314.0,12343.984375,N2,0.14785416666666673,26.645911572329428,-58.75,40.03,98.78,7.525,34.85648370623827,921.875,912.6790364583334,0.24578919095210205,0.0,0.21358993356949718,62.87392289629299,0.16778845114853244,63.796551630946325,0.10833333333333334,97,0.23923044166666665,0.001194573081312831,-6.521245258584347e-07,33.21666666666667,0.02712112747574424,-4.256945599214808e-05,65.864,0.30895091303743794,0.8199999999999932,-0.0005000001356337167
S049,12344.0,12373.984375,N2,-0.22550000000000006,28.574229598465703,-62.48,46.77,109.25,6.285,43.80809015491126,921.875,920.3125,0.23437268517375393,0.0,0.20912350152216005,62.86947261874874,0.15888981633951052,63.796551630946325,0.10208333333333333,89,0.23871805833333334,0.0012613786260532152,-2.2850505330540824e-07,33.138999999999996,0.02211334438749485,-3.4756953872869496e-05,65.685,0.143614066163451,0.45000000000000284,0.00019135421857482116
S049,12374.0,12403.984375,N2,0.16888020833333334,27.222232904722993,-58.99,43.8,102.78999999999999,7.635,29.758434433926904,906.25,906.5348307291666,0.24016912082368586,0.0,0.2200827456448041,62.873387564481405,0.16346100406168373,63.796551630946325,0.11041666666666666,94,0.24172785833333338,0.011753547735539143,9.090622040641834e-06,33.06933333333334,0.029431653406192602,-4.576390130314229e-05,65.613,0.17948351827767528,0.47999999999998977,0.00026163201541666933
S049,12404.0,12433.984375,N2,-0.010000000000000113,25.192816641108237,-99.13,87.29,186.42000000000002,3.51,49.994362407327394,828.125,825.3255208333334,3.00849491717481,1.7250676189444156,8.927950171838624,62.97924909521398,0.8542882435042464,75.67033764957046,0.046875,24,0.23412861666666665,0.0061214350389748404,-1.0351266262821797e-05,33.023666666666664,0.0168292074151521,2.6736118363746756e-06,66.642,0.8910607910425278,2.680000000000007,0.0015297226371860473
S049,12434.0,12463.984375,W,-0.21845312500000003,22.007716325588948,-58.0,43.09,101.09,4.720000000000001,43.76118153780886,828.125,842.9931640625,0.0,0.0,0.032258047015004204,62.97637591775518,0.0058820846544833695,63.15853069855251,0.0010416666666666667,1,0.2270949666666667,0.0013208693219071814,-1.220137917789139e-06,33.02833333333333,0.010671873729054513,5.104168051260466e-06,70.016,0.7320819626244058,2.5500000000000114,0.0013039586870547675
S049,12464.0,12493.984375,W,0.09160937500000005,22.444795737345483,-49.89,39.19,89.08,5.52,42.31606113455833,843.75,852.2542317708334,0.0,0.0,0.04559597630883185,62.9765658601752,0.008314185679859016,63.15853069855251,0.0020833333333333333,2,0.2249814,0.001025922726134871,-2.720690842201304e-07,33.041666666666664,0.01318669362990029,6.8402796333214165e-06,72.035,0.4419106244479751,1.3199999999999932,-0.00010711808461319616
S049,12494.0,12523.984375,W,0.10917187499999992,22.71078923780044,-51.28,39.05,90.33,5.654999999999999,33.752318526326576,843.75,849.3408203125,0.0,0.0,0.03225804701500421,62.97637591775518,0.005882084654483368,63.15853069855251,0.0010416666666666667,1,0.2231565083333333,0.0011421721046310097,-8.754370864358441e-07,33.028999999999996,0.015132745950420816,3.9930566387420055e-06,71.05566666666667,0.13932416237760675,0.37999999999999545,7.017363014692502e-05
S049,12524.0,12553.984375,N1,-0.17355729166666667,23.91114650076597,-53.4,37.97,91.37,5.275,28.62340337973139,875.0,872.509765625,0.0,0.0,0.1356408400888169,62.97960493889549,0.024733391442964825,63.15853069855251,0.01875,17,0.2233913,0.0011988203201481055,4.5686600934950466e-07,33.007666666666665,0.01909333798882624,-2.6006951499281083e-05,69.96333333333334,0.5172448377917576,1.6199999999999903,-0.0008132641095008959
S049,12554.0,12583.984375,N2,-0.0013958333333333073,24.19042424462586,-57.95,45.11,103.06,5.355,26.198745016725304,875.0,880.3385416666666,0.0,0.0,0.2050125970045635,62.98106281698271,0.03676198144238741,63.15853069855251,0.034375,32,0.22366870833333333,0.001083180612792974,6.15782936139036e-07,32.978,0.014922019523733133,-7.708335424352966e-06,69.34366666666666,0.4390860457308499,1.1499999999999915,-0.0007584377057393914
S049,12584.0,12613.984375,N2,0.12683333333333333,23.58489107797028,-52.11,39.3,91.41,5.525,35.683185398971695,859.375,860.8642578125,0.0,0.0,0.20912350152216008,62.98454344181596,0.038132567003302385,63.15853069855251,0.04583333333333333,39,0.22354066666666664,0.0013424410808506883,8.898544080551266e-07,32.952,0.014922019523732913,-1.1875003221301456e-05,68.68399999999998,0.22376475742767601,0.6499999999999915,0.00035298620686474925
S049,12614.0,12643.984375,W,-0.27213020833333335,23.638414183223652,-59.33,43.27,102.6,4.484999999999999,42.18324160963416,875.0,880.6722005208334,0.0,0.0,0.4422166387140533,63.02481123485979,0.0806358705884231,63.15853069855251,0.26666666666666666,170,0.22395688333333333,0.0011724332758792277,-1.4263545535901072e-07,32.92466666666666,0.015434449203722713,-1.6805560114358126e-05,68.78399999999998,0.15551205741034982,0.4899999999999949,-0.0002715972958977044
S049,12644.0,12673.984375,N2,0.2589999999999999,24.346304359782547,-53.55,38.18,91.72999999999999,5.915,45.54366199116191,875.0,887.6708984375,0.0,0.05581428468591173,0.40798108743952005,63.01027952929109,0.08220081468638822,63.15853069855251,0.20104166666666667,143,0.22395684999999999,0.00122937210701236,-1.9372921921908123e-07,32.89799999999999,0.015143755588799969,-1.2500003390842839e-05,69.07466666666666,0.2822142606051111,0.980000000000004,-0.0002456945110933463
S049,12674.0,12703.984375,N2,0.08417708333333339,24.10349731820346,-55.6,41.1,96.7,5.59,48.06164908072694,906.25,912.8255208333334,0.0,0.07880950133074056,0.36985914877228,63.002267527275926,0.08363465124082324,63.15853069855251,0.16354166666666667,132,0.22342331666666665,0.001106447174392988,-2.7090979571120897e-07,32.86833333333333,0.01845414738088708,-1.3159725792025986e-05,67.88600000000001,0.33126625746268407,1.2800000000000011,-0.0005687501542833529
S049,12704.0,12733.984375,N2,-0.11380729166666663,21.864642031865362,-52.38,34.41,86.78999999999999,4.949999999999999,53.140912135048026,890.625,893.3756510416666,0.0,0.07198059875565237,0.4763094159495719,63.036516019849415,0.09542752539446862,63.15853069855251,0.34479166666666666,198,0.22401024166666667,0.001230535229048954,1.1496986625701724e-07,32.84,0.010954451150103088,-9.652780396262466e-06,66.55866666666667,0.13759198943090864,0.5999999999999943,-0.00011270836390743432
S049,12734.0,12763.984375,N2,-0.07022395833333331,21.52177875388307,-46.97,36.48,83.44999999999999,5.115,41.344797368622004,921.875,930.0048828125,0.0,0.09636964965693294,0.4851796631718559,63.03972317030299,0.10493304959936292,63.15853069855251,0.375,226,0.22440506666666668,0.0011078068253184894,2.4654173354539294e-07,32.818999999999996,0.017194960502037743,-2.1215283532790493e-05,65.95599999999999,0.25291105155765636,0.7600000000000051,-0.0002865278555034319
S049,12764.0,12793.984375,W,0.8290520833333332,27.25013393578315,-119.37,109.2,228.57,3.755,84.60000847808158,812.5,837.8173828125,5.515154213461659,3.2737745533846536,13.83980987790646,63.127290330741815,0.9818174464899183,74.18894796396563,0.06354166666666666,28,0.2201892,0.006713589201016103,-9.28177074700813e-06,32.790666666666674,0.01671991493864566,-1.9791672035500752e-05,65.89333333333335,0.5202008159248592,2.030000000000001,0.0004823612419599739
S049,12794.0,12823.984375,W,-0.7086510416666669,105.18735211567689,-583.24,380.57,963.81,4.955,59.38715001768168,671.875,703.8248697916666,31.97906132922391,10.488345880335734,18.191752080269783,65.50526919817636,6.83787849222594,139.90711204224036,0.07916666666666666,39,0.19778884166666666,0.11497238461452355,-0.00012709117227950638,32.74966666666667,0.02857543622686468,-3.510417618928627e-05,71.51566666666668,1.9918194083690304,6.6299999999999955,0.003543230127829352
S049,12824.0,12853.984375,W,2.462083333333333,59.165649116250066,-256.99,415.65,672.64,6.695,49.852014465679815,609.375,645.9309895833334,12.597497848379676,6.96553519519897,7.757892416646668,65.09938253886395,2.9057373806525892,117.11532777565881,0.0375,18,0.09883427500000001,0.06864023528878216,3.77602595920843e-05,32.71966666666666,0.0316736834331319,1.809028268508184e-05,79.73700000000001,3.044520925641122,8.930000000000007,0.005423230637812132
S049,12854.0,12883.984375,W,-2.3967656249999996,94.9080622854476,-585.29,568.5,1153.79,5.495,47.346263856527,750.0,762.5,2.3223698440834815,1.8830357319255344,2.4701075293592427,64.96050011785013,1.3863499217226374,82.04267182387468,0.022916666666666665,11,0.16068583333333333,0.003871609541119674,2.512652157294963e-06,32.682333333333325,0.028946310453819356,-4.6840290484019975e-05,83.42399999999999,0.41254171506244913,1.2000000000000028,0.0005570834844518995
S049,12884.0,12913.984375,W,0.05878645833333333,59.215189822061134,-219.36,250.57,469.93,4.29,8.370819813584657,796.875,794.4580078125,11.626364120606688,9.304112553955196,6.42368655173418,65.2381283474953,1.998214131600717,80.00624975587844,0.06041666666666667,26,0.17703734166666668,0.021652563226823685,1.6634768184344667e-05,32.592000000000006,0.03155946767611929,1.520833745885829e-05,80.54299999999999,2.088042384627285,6.210000000000008,-0.0037475357388063514
S049,12914.0,12943.984375,W,0.6089270833333333,73.85915091898804,-312.64,257.38,570.02,9.16,31.626655624067684,812.5,793.3675130208334,20.049303378726705,3.1902187479422506,5.748867264634738,65.05694141652307,2.598196206425834,98.53425800197614,0.03125,13,0.16864812499999998,0.02139919081007601,-2.5195633353850186e-05,32.652333333333324,0.015423647068344329,8.993057995077374e-06,76.95766666666667,0.2745017708908672,0.8499999999999943,-0.00046975707187420495
S049,12944.0,12973.984375,W,-0.9310781250000008,62.88382271874909,-258.26,234.73,492.99,3.3899999999999997,42.20585364953022,734.375,761.767578125,42.07521413787771,44.33211189136227,16.694731546656584,65.09525011118639,9.578028048373112,189.41224881194987,0.06875,22,0.31719384166666664,0.36320030496836947,0.00014855100579183096,32.61533333333333,0.018571184369578653,-3.3333342375565645e-06,76.78733333333334,0.41549916432594114,1.519999999999996,0.0006904862984175077
S049,12974.0,13003.984375,W,-0.04756250000000003,52.97485027503863,-262.3,277.22,539.52,1.145,51.76270275885378,734.375,714.404296875,25.959460582801025,13.399707473421348,27.67751222851726,63.822153686811596,5.716787306725221,157.30543537970962,0.03229166666666667,13,0.27278710833333336,0.044042083769730185,-2.9207782445687496e-05,32.658333333333324,0.023816427570528122,3.524306511584805e-05,77.90866666666666,0.41317254937320663,1.2000000000000028,-0.0005062501373291387
S049,13004.0,13033.984375,W,0.5506249999999999,93.40013068348838,-299.32,344.33,643.65,1.29,0.0,953.125,953.125,25.89895026830238,36.59124284216614,28.55719846176048,65.57325835366473,9.365377135147247,135.35139452550905,0.09270833333333334,29,0.23064152500000004,0.11697605180270608,9.88785348520331e-05,32.739000000000004,0.02005824851110764,2.572917364615212e-05,78.97033333333334,0.4217225259443561,1.4000000000000057,0.00011628475376648
S049,13034.0,13063.984375,W,0.2334947916666664,111.91104497790577,-393.36,519.34,912.7,4.41,0.0,953.125,953.125,23.151040518372675,39.42163077389448,28.724408900213536,65.48452345855698,11.61550238857685,181.17946903553946,0.07395833333333333,27,0.27362359999999997,0.27178608970804596,0.00019149336010562066,32.80833333333333,0.024506235034283484,3.885417720653628e-05,78.80999999999999,0.3102042337987444,0.9899999999999949,0.000336319535676957
S049,13064.0,13093.984375,W,-0.5935260416666667,85.95355616682349,-631.5,303.11,934.61,3.705,0.0,953.125,953.125,11.888649866983307,10.828588253678701,34.010895925668684,64.81992687378839,3.562389892107741,84.88227141164403,0.08229166666666667,29,0.16890426666666666,0.03015180161083063,-4.099696077391514e-05,32.826,0.023036203390893947,1.520833745885869e-05,78.316,1.4598506772954565,4.769999999999996,0.0020607644479070245
S049,13094.0,13123.984375,W,0.11555729166666732,114.12127203386285,-466.8,566.78,1033.58,-3.79,0.0,953.125,953.125,24.132236046899255,24.67939509626823,35.88369426200275,65.12611232912454,8.186746986904234,136.09188072769072,0.090625,44,0.22932496666666669,0.2996227657265029,-0.00012774075991231555,32.883333333333326,0.027728845790779603,3.312500898573329e-05,83.36266666666667,2.0445894996850154,6.099999999999994,0.0035680565234528323
S049,13124.0,13153.984375,W,-1.104515625000001,99.37677839380812,-379.56,799.06,1178.62,0.825,115.43553956629893,734.375,779.39453125,24.433570655964306,20.546530415361495,24.962474419080813,65.0883891506728,7.813152230091194,132.24598292575845,0.07708333333333334,24,0.20640788333333332,0.11433645475096614,6.65774520880675e-05,32.84433333333333,0.04022298955683053,1.4895837374087954e-05,90.72733333333333,1.5760666934562837,5.139999999999986,0.0025397229111661546
S049,13154.0,13183.984375,W,0.6749843749999999,85.76886031290586,-332.7,377.77,710.47,1.69,0.0,734.375,734.375,15.026452045233711,32.94104567609193,16.523543677423504,65.23713282661905,7.408458042134269,103.39729203417274,0.07708333333333334,31,0.15524203333333333,0.03727405274538249,-2.354171645554376e-06,32.92966666666666,0.04324221188710157,7.06597413899056e-05,95.03033333333333,1.3930290337566151,4.420000000000002,0.002378090922876226
S049,13184.0,13213.984375,W,-0.11397916666666674,70.58542736833432,-296.72,267.37,564.09,1.38,16.34568433820912,687.5,694.140625,19.928520024659733,39.972989456227914,28.329747015676336,65.32202193010966,7.406227174633129,108.39280418920806,0.07604166666666666,25,0.3277544083333333,0.057094776183479315,-5.7557866091001005e-05,33.02066666666666,0.022201101073794912,3.4722231641253066e-07,95.14966666666666,1.518860281775632,3.8699999999999903,-0.0023873964809560744
S049,13214.0,13243.984375,W,0.11807812500000038,81.53060733555414,-348.56,363.05,711.61,1.17,21.360690973275986,640.625,655.56640625,30.073912836375825,34.33306405069864,26.699705363412825,64.93264109361051,5.7988896013256666,101.65628362280415,0.096875,44,0.3312766083333333,0.1163706640863793,0.0001317976310214928,33.035999999999994,0.02332380757938089,2.4861117855120365e-05,94.39533333333333,0.25995811628457083,0.7999999999999972,-0.00022777783956647195
S049,13244.0,13273.984375,W,0.2728489583333332,78.08824686131082,-297.57,311.06,608.63,-0.9299999999999999,33.40355212414894,546.875,557.3323567708334,23.71230174663067,32.19023794989458,26.416245314068682,65.37314708397531,9.117209843857422,118.48206615349008,0.109375,41,0.28591522500000005,0.07626961987006607,-4.6480907791044866e-05,33.01266666666666,0.017113996870657906,8.750002373590508e-06,96.45533333333333,1.2301076736972616,3.759999999999991,0.002166736698876057
S049,13274.0,13303.984375,W,-0.17310937500000018,82.77930442641669,-357.59,481.69,839.28,2.49,0.0,546.875,546.875,25.982143119221483,27.800975998929527,26.67495671921929,65.73273125338793,10.960474456117874,134.03730823916152,0.10520833333333333,39,0.2813257166666666,0.040680555807654874,-1.4896985811899363e-05,33.044666666666664,0.017838784213678734,2.000000542534686e-05,97.021,0.3200661389983834,1.1999999999999886,-0.00012218753314548845
S049,13304.0,13333.984375,W,1.8223385416666664,150.28704389746136,-746.01,447.01,1193.02,3.6799999999999997,0.0,546.875,546.875,41.75400632599025,22.406089681551048,23.538470261430838,65.50378657826488,8.412403178786576,139.14740385648594,0.10729166666666666,38,0.29049401666666674,0.046206302809245856,-2.095062200266438e-05,33.01,0.049665548085837743,-6.951390774574317e-05,94.12599999999999,2.3018030613702245,6.0800000000000125,-0.003815070479348548
S049,13334.0,13363.984375,W,-1.7037239583333332,96.69081128857358,-463.17,377.22,840.3900000000001,1.9049999999999998,81.21055069191576,718.75,660.9212239583334,12.72934584571109,4.421478805375967,15.223888128473092,64.8967738227533,4.3013318555693365,111.34630662936243,0.10104166666666667,44,0.2691795166666667,0.03380223531266912,-4.001373047247467e-06,33.00366666666667,0.03868534031846575,-2.343750635782939e-05,96.38166666666667,2.3388944444378463,8.22999999999999,0.004149133069968823
S049,13364.0,13393.984375,W,0.49822395833333327,172.68178451098356,-517.18,834.41,1351.59,-11.15,0.0,718.75,718.75,15.655024486300452,6.426572102844219,23.84213577159231,64.23651842074246,4.77056001411587,102.61578825892242,0.07395833333333333,25,0.29374943333333337,0.03846914616865776,3.948109013701447e-05,32.89566666666666,0.09160361467880171,-0.00014142364947473273,110.31966666666668,5.03233311253891,14.620000000000005,0.008845939899614774
S049,13394.0,13423.984375,W,-0.47842187500000005,20.374972570511716,-41.35,32.56,73.91,2.935,42.15663204486586,828.125,820.99609375,0.3781752147557473,0.05581428468591172,0.31340840191176894,63.284680480022416,0.2377145517972369,64.17164482853778,0.003125,3,0.3057888166666667,0.002047018457754805,-3.018682242481065e-06,32.51833333333333,0.08540426739272954,-0.00015163198557725265,109.85333333333334,5.673942387989344,18.049999999999997,-0.010093266626862694
S049,13424.0,13453.984375,W,0.3069635416666667,22.035158707608716,-56.4,43.51,99.91,4.57,43.91971473684396,812.5,820.1578776041666,0.2981423969999719,0.3271413828530411,0.4615406247167077,63.21861430026795,0.23833999655195762,64.03124237432849,0.041666666666666664,34,0.30335525,0.0015741480513280844,-5.22497537569861e-07,32.21333333333334,0.08749603165604421,-0.00015576393114255876,86.978,6.00099513969697,20.900000000000006,-0.010798961262739057
S049,13454.0,13483.984375,W,-0.32596354166666663,25.635583934346432,-60.41,49.43,109.84,4.529999999999999,36.70757926400225,843.75,851.1637369791666,0.45210613421764395,0.36110844016106236,0.14627537173085564,63.255776561243536,0.37977840121978945,63.8200595424354,0.22604166666666667,156,0.3022559166666667,0.002282017022954816,-2.527796692653183e-06,31.973666666666666,0.06274197602526962,-0.00010934030743823381,72.37000000000002,1.1781454352781182,4.719999999999999,-0.0016968060158436473
S049,13484.0,13513.984375,W,0.1479791666666666,24.373600634608735,-61.65,43.64,105.28999999999999,4.885,37.03791916423681,828.125,822.9248046875,0.36699204313203065,0.5050429282496688,0.48174014541901466,63.24718604186223,0.3896037979814209,64.17164482853778,0.07916666666666666,49,0.2992995666666667,0.0018410833121350568,-1.1479838183549837e-06,31.802666666666667,0.03776535743538323,-6.520835102223135e-05,71.81866666666669,0.1680621578133763,0.45999999999999375,-0.00015812504289416268
S049,13514.0,13543.984375,W,0.03158854166666672,29.15820777327461,-71.99,52.7,124.69,6.015,37.32851786296063,859.375,869.4905598958334,0.0,0.4977978850648122,0.0,63.28359472496666,0.3738498176692622,63.623894882347464,0.0,0,0.29812554166666666,0.0021477607598606547,-2.9616494579127194e-06,31.681333333333335,0.04917542294909376,-8.548613430070967e-05,71.641,0.07395268757793824,0.3299999999999983,-3.454862048302191e-05
S049,13544.0,13573.984375,W,-0.23788541666666668,25.564074456553364,-52.61,38.19,90.8,4.98,28.458479663552723,875.0,876.5869140625,0.0,0.48218141288373567,0.0,63.149039260439075,0.36212173393750335,63.623894882347464,0.36770833333333336,184,0.29686620833333327,0.0014240508002164958,-2.1960053700101445e-07,31.552666666666664,0.029544693074879825,-4.902779107741624e-05,69.85300000000001,0.8040901690730959,2.549999999999997,-0.0014403823351731597
S049,13574.0,13603.984375,N1,0.3111770833333332,25.67552966773308,-53.43,38.82,92.25,6.21,22.45191162389186,859.375,870.2067057291666,0.0,0.4454583703582437,0.0,63.07785003211343,0.33454246298373413,63.623894882347464,0.27291666666666664,163,0.2935038833333333,0.001678237926036979,-1.500249104885287e-06,31.46933333333334,0.015902480589168412,-2.1597228080844826e-05,68.529,0.18199542118782533,0.4300000000000068,-0.00030392369355569204
S049,13604.0,13633.984375,N1,-0.23548958333333342,25.468226355964436,-54.35,38.34,92.69,5.135,23.171492055762638,875.0,874.2431640625,0.0,0.4155075021885886,0.032258047015004204,63.03932656282832,0.31220693738824024,63.623894882347464,0.221875,149,0.2916788166666667,0.0015038191213447843,-1.1639052636461698e-06,31.398000000000003,0.027616420236276716,-4.527779006016343e-05,68.86433333333333,0.19400486820924948,0.6699999999999875,0.00019795144258665144
S049,13634.0,13663.984375,N1,0.18989583333333335,24.8999898550344,-52.3,37.74,90.03999999999999,5.455,25.278196599189815,890.625,885.9375,0.0,0.3726779962499649,0.11110243021644485,62.99577485283596,0.2796140628309,63.623894882347464,0.16666666666666666,121,0.29029144166666665,0.0012661970344028384,4.462590186249465e-07,31.32266666666667,0.02279376132970577,-3.729167678268279e-05,68.58233333333334,0.1280542419792843,0.45000000000000284,-0.00022809033965124335
S049,13664.0,13693.984375,N1,0.028630208333333258,24.34759266951774,-50.93,36.6,87.53,6.05,34.8334281089625,875.0,886.8733723958334,0.0,0.3210226714043037,0.05581428468591172,62.95993272662098,0.24151478773117002,63.623894882347464,0.11666666666666667,81,0.28991791666666666,0.0014204446755818683,-1.1371487459713382e-06,31.268000000000004,0.017397317800932812,-2.2847228419929096e-05,67.96733333333333,0.14454372656358735,0.5100000000000051,-0.00024881951194105845
S049,13694.0,13723.984375,N1,-0.027598958333333368,23.437140066471756,-48.77,34.07,82.84,5.449999999999999,21.18335420500945,890.625,882.4544270833334,0.0,0.21137108216357317,0.07880950133074056,62.9069462557552,0.15964891332311812,63.623894882347464,0.046875,40,0.2896830833333333,0.0013296639148254296,1.5031167271909355e-07,31.232666666666667,0.01842703328144661,-2.6805562827029274e-05,67.69666666666667,0.07100860667709334,0.20000000000000284,9.888891571422143e-05
S049,13724.0,13753.984375,N1,-0.16549999999999995,23.869955190399217,-48.74,33.48,82.22,5.23,29.748284424897555,890.625,893.5953776041666,0.0,0.16532992583014122,0.0,62.894009717206565,0.12416397192773046,63.623894882347464,0.028125,25,0.2900780333333333,0.001192164900040631,2.4961378298982185e-08,31.20133333333333,0.012310790208412664,-1.3958337119774312e-05,67.62466666666667,0.11409742425761442,0.36999999999999034,-0.00019916672069409576
S049,13754.0,13783.984375,N1,0.06455729166666672,22.79614875897921,-47.31,32.76,80.07,5.63,21.492209499170226,875.0,879.1178385416666,0.0,0.10642856726723121,0.06441510347391792,62.88072969829263,0.0808761002404657,63.623894882347464,0.011458333333333333,11,0.2891814333333333,0.0011115935238306452,1.5900221327099976e-07,31.171333333333337,0.016275407487645832,-2.083333898473933e-05,67.48666666666666,0.04315347288715011,0.19999999999998863,6.750001831054821e-05
S049,13784.0,13813.984375,N1,0.00336979166666674,22.495943334501167,-46.79,32.25,79.03999999999999,5.470000000000001,28.897000456775178,890.625,893.7744140625,0.0,0.06441510347391795,0.0,62.876016835322055,0.04837620932386145,63.623894882347464,0.004166666666666667,4,0.2891707,0.001528669670007228,1.4568784333980182e-06,31.128,0.014922019523732944,-1.7569449210462526e-05,67.52166666666669,0.06792561290771153,0.1699999999999875,-0.00010927086297494487
S049,13814.0,13843.984375,N2,-0.12543749999999998,21.851630383877396,-45.47,32.7,78.17,5.095,29.381252146523373,875.0,874.9104817708334,0.05581428468591172,0.045595976308831845,0.1899835519196333,62.86958593573549,0.06087639800599031,63.623894882347464,0.005208333333333333,5,0.28865836666666667,0.0012270857612879254,-9.03726373623692e-07,31.08533333333333,0.01910206504252546,-2.3680561979318594e-05,67.71266666666665,0.09845247020206753,0.3400000000000034,0.0001669444897310369
S049,13844.0,13873.984375,N2,0.11725520833333333,20.97979232145865,-45.55,32.31,77.86,5.425,39.317472977918584,890.625,892.9036458333334,0.06441510347391795,0.05581428468591172,0.15612494995995996,62.87332552365665,0.06567036091082439,63.623894882347464,0.007291666666666667,6,0.28879714999999995,0.0011455622975203093,6.13812666507343e-07,31.05066666666666,0.01896195020443678,-2.451389553870812e-05,67.91066666666667,0.13716008489676776,0.37999999999999545,0.00020840283431066382
S049,13874.0,13903.984375,N2,-0.008208333333333344,21.908113050076462,-45.52,37.63,83.15,5.265000000000001,32.60797508836508,906.25,895.3694661458334,0.11557806855349137,0.032258047015004204,0.2599996661322643,62.86900176475149,0.08583183367826959,63.623894882347464,0.014583333333333334,13,0.28695038333333334,0.0011739251550768597,-8.48129570347652e-07,31.01533333333333,0.014544949486181468,-1.2777781243973613e-05,67.76700000000001,0.26916104225289905,0.8499999999999943,-0.0004322570617016781
S049,13904.0,13933.984375,N2,0.0033072916666666637,20.4805458822449,-43.48,33.19,76.66999999999999,5.029999999999999,25.5407333639117,859.375,857.9996744791666,0.032258047015004204,0.045595976308831845,0.08507936450096985,62.87378417590506,0.04297365520945632,63.623894882347464,0.003125,3,0.28705715833333334,0.0012325856494637187,-6.017655712254712e-07,30.980666666666668,0.01842703328144755,-2.5694451414511245e-05,67.59233333333334,0.31155185050895684,1.0700000000000074,0.0005531598722764404
S049,13934.0,13963.984375,N2,0.1017864583333334,18.691092745114805,-41.67,27.81,69.48,4.785,33.935683484187464,890.625,897.6236979166666,0.05581428468591172,0.03225804701500421,0.07198059875565237,62.87471868077221,0.04519380951409934,63.623894882347464,0.004166666666666667,4,0.2873133583333333,0.0013142344146297616,1.2389428274041992e-06,30.933333333333337,0.020055478608654666,-2.868056333565567e-05,68.24066666666666,0.09949651026822719,0.28000000000000114,4.312501169840743e-05
S049,13964.0,13993.984375,N2,0.010776041666666814,18.97220978804286,-42.14,28.51,70.65,4.83,21.93728918473595,859.375,862.0035807291666,0.0,0.032258047015004204,0.07880950133074056,62.872525090410925,0.028232764285524427,63.623894882347464,0.0010416666666666667,1,0.28786842500000004,0.0011215864408840757,-5.796192978568011e-07,30.918666666666674,0.012310790208412664,-4.791667966489689e-06,68.15433333333334,0.11805883655571366,0.3499999999999943,-4.788195743325432e-05
S049,13994.0,14023.984375,N2,-0.05204166666666658,19.83275169485895,-44.56,31.28,75.84,4.87,39.422675406650065,875.0,879.7932942708334,0.03225804701500421,0.03225804701500421,0.07880950133074056,62.87319268457169,0.03499974360073672,63.623894882347464,0.0020833333333333333,2,0.2867902916666667,0.0012976556322578704,9.232793303166793e-08,30.890666666666668,0.015040685563570985,-2.0902783448020238e-05,68.36166666666668,0.11773086067618631,0.4399999999999977,3.854167712178691e-06
S049,14024.0,14053.984375,N2,-0.21591145833333333,18.7214049175245,-42.51,32.06,74.57,4.285,40.2570707798718,906.25,902.0182291666666,0.032258047015004204,0.03225804701500421,0.07880950133074056,62.87319268457169,0.03499974360073672,63.623894882347464,0.0020833333333333333,2,0.28799652499999995,0.0011252381745101828,-1.2426370558368542e-07,30.835333333333327,0.019275776393068874,-2.8333341019245497e-05,68.74100000000001,0.4605239769364167,1.4500000000000028,-0.0006623265685564687
S049,14054.0,14083.984375,N2,0.0389635416666667,16.630908104926327,-37.53,25.91,63.44,4.4399999999999995,27.24911617163974,859.375,857.6416015625,0.09090593428863095,0.03225804701500421,0.05581428468591172,62.87843826733401,0.06390926690709993,63.623894882347464,0.009375,9,0.28876509999999994,0.001411880125931379,1.113338409651266e-06,30.800666666666665,0.01526069752301247,-1.0138891639239052e-05,67.82133333333333,0.30920040247206765,0.8799999999999955,0.0004985418019047847
S049,14084.0,14113.984375,N2,0.019916666666666596,17.21250317094298,-37.15,24.21,61.36,4.715,34.53179924299391,890.625,907.6416015625,0.11110243021644486,0.0,0.032258047015004204,62.88070796052269,0.071470624197256,63.51377803280167,0.0125,10,0.28972581666666664,0.0011562601349705951,4.4772581589785907e-08,30.779999999999998,0.009999999999999787,-3.6805565539703404e-06,67.88466666666666,0.22185180238668678,0.6799999999999926,-0.00030909730607023284
S049,14114.0,14143.984375,N2,0.11531250000000001,17.357039647330716,-36.22,25.84,62.06,4.445,39.01611880640611,890.625,898.9990234375,0.11110243021644486,0.0,0.03225804701500421,62.88070796052269,0.071470624197256,63.51377803280167,0.0125,12,0.2894803083333333,0.0011922662020694987,2.7822707200169138e-08,30.749333333333333,0.018961950204436785,-2.1597228080844823e-05,67.63933333333334,0.28496705462600935,1.0500000000000114,-0.0004627779033143206
S049,14144.0,14173.984375,N2,-0.01641145833333337,16.6597904019514,-35.82,24.08,59.9,4.275,34.79261933809836,875.0,874.2838541666666,0.11110243021644486,0.0,0.07198059875565237,62.87994472900668,0.07252041365432368,63.51377803280167,0.0125,12,0.2903662166666666,0.0012742868017269699,7.00136908674291e-07,30.715333333333334,0.017074997966487235,-1.9722227572218426e-05,66.75633333333333,0.436810281726772,1.3199999999999932,0.000678021017258304
S049,14174.0,14203.984375,N2,0.007026041666666627,16.33869454824921,-37.2,24.21,61.410000000000004,4.2,32.27707728116236,890.625,885.25390625,0.1462753717308556,0.0,0.04559597630883185,62.88652550009053,0.09417462394877298,63.51377803280167,0.021875,20,0.2906863416666667,0.0012305191349984005,5.789639157345656e-07,30.678000000000004,0.014236104336042143,-1.2638892317408016e-05,67.635,0.1121531690739659,0.4200000000000017,0.00014989587399519264
S049,14204.0,14233.984375,N2,-0.13443750000000002,15.22756406283554,-34.01,24.1,58.11,3.925,32.26069020857525,875.0,876.2451171875,0.12801909579781012,0.0,0.05581428468591172,62.88299672140773,0.08275467010224136,63.51377803280167,0.016666666666666666,16,0.2905796166666666,0.0012099963304581605,-3.098468722457878e-07,30.644666666666662,0.012578641509409254,-5.972223842292051e-06,68.212,0.14654692081377738,0.44999999999998863,-5.604168186894355e-05
S049,14234.0,14263.984375,N2,0.22649479166666667,18.248055991066497,-39.66,29.27,68.92999999999999,5.23,40.80608470814003,859.375,868.8151041666666,0.17399263633843817,0.0,0.0,62.89291546329537,0.11151020931329605,63.51377803280167,0.03125,28,0.2904409333333333,0.0010808044899775066,2.134696759629084e-07,30.62,0.017701224063135294,-2.423611768557828e-05,68.41833333333334,0.21765543615744726,0.8100000000000023,0.0002939931353062989
S049,14264.0,14293.984375,N2,-0.029770833333333364,17.053111585254737,-37.55,25.89,63.44,4.24,40.17929372525085,906.25,902.4088541666666,0.17677362623014653,0.0,0.07198059875565237,62.892629018061115,0.11423016181910771,63.51377803280167,0.03229166666666667,27,0.2904409166666666,0.0013405354687793768,-1.3511244984604278e-07,30.547333333333327,0.03375730373645885,-5.513890384627317e-05,68.67133333333332,0.15724149862198883,0.5300000000000011,-0.00022756950617662414
S049,14294.0,14323.984375,N2,-0.1267916666666667,16.69332219963312,-37.75,24.28,62.03,4.25,45.45725359218578,921.875,926.025390625,0.1899835519196333,0.0,0.05581428468591172,62.89634860462291,0.12229965554992994,63.51377803280167,0.0375,34,0.2905795749999999,0.001328454946309807,5.977959520930829e-07,30.489333333333335,0.0189619502044382,-2.4236117685580427e-05,66.75866666666667,0.7708338918916895,2.5700000000000074,-0.0013781253738404332
S049,14324.0,14353.984375,N2,0.07262499999999995,15.737555728157881,-33.89,23.37,57.260000000000005,4.029999999999999,37.58602782696085,906.25,903.6539713541666,0.20912350152216008,0.0,0.0,62.902261781545995,0.13402524335401295,63.51377803280167,0.04583333333333333,41,0.29108114999999996,0.0011658477720097025,-7.9534743797402e-07,30.464000000000002,0.017999999999999617,-1.2986114633819881e-05,65.37466666666666,0.21129337161607362,0.519999999999996,-0.00034555564929352215
S049,14354.0,14383.984375,N2,0.02622395833333336,14.692167693120009,-36.42,25.27,61.69,3.815,38.74525222268704,859.375,872.0784505208334,0.26677854098588133,0.05581428468591172,0.12849286620924394,62.91774551793707,0.173826369619066,63.7102817447859,0.07395833333333333,61,0.2904515416666667,0.001317125373024102,2.7552589939396146e-07,30.43933333333333,0.016110727964792418,-2.083333898473776e-06,66.461,0.6940621970207951,2.1700000000000017,0.0012434378373041004
S049,14384.0,14413.984375,N2,-0.044661458333333307,16.588292316230834,-39.87,26.43,66.3,4.220000000000001,45.68212521201271,906.25,912.0361328125,0.3388075878684275,0.0,0.27480856657660596,62.94262337616565,0.22153824236657377,63.51377803280167,0.13229166666666667,110,0.2899285916666666,0.0011566510385291444,-5.503276232442572e-07,30.432000000000006,0.018147543451754546,-2.21527837871045e-05,67.52533333333334,0.16343670198445595,0.480000000000004,-0.00020673616719188613
S049,14414.0,14443.984375,N2,-0.14337500000000006,17.0753881076256,-36.6,24.58,61.18,4.325,41.31015126343488,890.625,905.5094401041666,0.37727176461405115,0.0,0.33306629928922893,62.959808455392476,0.24794675561816595,63.51377803280167,0.171875,128,0.290376875,0.0011943878387588322,2.7514135067853394e-07,30.35666666666667,0.03515047020390491,-5.888890486352806e-05,67.03766666666667,0.24082750858008034,0.8699999999999903,-0.0003963542741846441
S049,14444.0,14473.984375,N2,0.3056614583333333,16.45213579030008,-36.15,24.54,60.69,5.085,40.56059794382108,921.875,917.626953125,0.3894760881798636,0.0,0.3234941073651883,62.97067158216827,0.25767322465381914,63.51377803280167,0.18645833333333334,139,0.2892668416666666,0.0011534544998672023,-4.314547611368177e-07,30.258,0.0271293199325005,-4.388890079451425e-05,65.66900000000001,0.2297440604963114,0.8999999999999915,-0.0001957292197616136
S049,14474.0,14503.984375,N2,-0.06817187499999997,15.114136919951543,-33.41,21.83,55.239999999999995,4.27,35.147763393540394,906.25,905.7861328125,0.3960402419753438,0.0,0.3591016472470651,62.96990841422764,0.26616280190120656,63.51377803280167,0.19479166666666667,142,0.28892525,0.0011407774706313277,-1.1169833759178057e-06,30.18533333333334,0.013349989596333572,-1.0486113955651348e-05,65.72433333333332,0.05541860898851453,0.1699999999999875,-5.899307155844776e-05
S049,14504.0,14533.984375,N2,-0.04683854166666675,15.813336527772938,-33.4,23.11,56.51,4.47,38.1978889800201,906.25,908.8297526041666,0.42163187438807326,0.0,0.3754496725224597,62.99006523213587,0.2787897378567798,63.51377803280167,0.23125,158,0.2891921,0.001402191691602828,1.3479704177437142e-06,30.17400000000001,0.013063945294843953,-6.38889062198635e-06,66.02999999999999,0.23710757052443363,0.5699999999999932,0.00040895844427040796
S049,14534.0,14563.984375,N2,0.05701041666666665,15.906729679076866,-37.45,28.82,66.27000000000001,4.5649999999999995,47.089487956365254,890.625,910.1643880208334,0.4324096224614136,0.0,0.3952352938440594,62.99703540615857,0.287932344835501,63.51377803280167,0.24895833333333334,175,0.28857297499999995,0.0010031660502504132,-5.8656916953373335e-08,30.13266666666667,0.017688665548562257,-2.2083339323822613e-05,66.01833333333335,0.08278821708968433,0.3299999999999983,-2.4895840086764698e-05
S049,14564.0,14593.984375,N2,-0.07059375000000004,13.922181363503862,-30.22,19.74,49.959999999999994,3.825,31.422531900906232,906.25,908.5042317708334,0.4545296714431547,0.0,0.3903123748998999,63.02556319943196,0.30146872873863223,63.51377803280167,0.2916666666666667,189,0.28842351666666666,0.0011006372243942274,-2.437765418230647e-07,30.102666666666668,0.01412641340027776,-9.652780396261837e-06,66.07066666666667,0.053224889749899335,0.18000000000000682,4.645834593596326e-05
S049,14594.0,14623.984375,N2,-0.06890624999999999,16.90336815707778,-37.57,24.55,62.120000000000005,5.0649999999999995,31.361491212736702,906.25,908.4798177083334,0.4501145205358546,0.0,0.4015540557910257,63.0168893343832,0.29894305717554426,63.51377803280167,0.28229166666666666,180,0.287847075,0.0011276660939192088,-1.6596293564533136e-07,30.103333333333335,0.01490711984999828,-1.1805558758018076e-05,65.80866666666667,0.1503713920782658,0.46999999999999886,-0.0002379167312057102
S049,14624.0,14653.984375,N2,0.11254687499999998,15.078693502163167,-34.85,23.43,58.28,4.375,38.277110699926716,921.875,913.5986328125,0.46351240544347894,0.0,0.4007791348493027,63.036453889233826,0.3066312723174,63.51377803280167,0.25104166666666666,162,0.28722796666666667,0.001264745817238482,-1.0254251913588362e-06,30.046666666666667,0.017950549357115004,-1.6875004577637687e-05,66.15833333333333,0.13374312027996843,0.5,-2.746528522821419e-05
S049,14654.0,14683.984375,N2,-0.047171874999999995,16.945040202680516,-38.68,29.88,68.56,4.68,41.91542990663036,906.25,906.3883463541666,0.4717715118306743,0.0,0.4168944689773287,63.0463103494964,0.30997523822737366,63.51377803280167,0.25416666666666665,169,0.28639538333333336,0.0011128090371018634,8.67477665873941e-07,30.009333333333334,0.022201101073796706,-3.243056435291068e-05,66.18766666666666,0.09769624125602551,0.29999999999999716,0.00010614586212724394
S049,14684.0,14713.984375,N2,0.03306250000000001,15.346011034910465,-32.38,21.95,54.33,4.744999999999999,28.52888684364658,890.625,892.8304036458334,0.48246599621113195,0.0,0.40461208274098787,63.07155379632256,0.32264797781347954,63.51377803280167,0.30520833333333336,192,0.28714253333333334,0.0011129981201940837,1.24255676067621e-07,29.95266666666667,0.0246215804168256,-3.8472232658482785e-05,66.087,0.2375871769828227,0.730000000000004,0.0003188542531614213
S049,14714.0,14743.984375,N2,-0.03665625000000004,16.151468591849554,-35.01,24.19,59.2,4.8100000000000005,40.90925360068221,906.25,913.0208333333334,0.48741875213265595,0.0,0.4287201864431962,63.077600358540714,0.3254479091298884,63.51377803280167,0.303125,195,0.28733468333333334,0.0011981350089711195,-1.8039241004568178e-07,29.90466666666667,0.01627540748764459,-1.8611116159699083e-05,66.482,0.10973908449894446,0.28000000000000114,-0.00018131949363050387
S049,14744.0,14773.984375,N2,-0.02446875000000012,15.584122767294499,-34.52,23.91,58.43000000000001,4.4,34.07931749676075,906.25,911.1572265625,0.48101883878273305,0.0,0.4229525846816507,63.06328571508665,0.31969227497763875,63.51377803280167,0.2833333333333333,198,0.2880498916666667,0.0012745445709208823,2.1794081432856577e-07,29.852666666666664,0.022939534045447758,-3.250000881619253e-05,66.10033333333334,0.3171170481418851,0.8200000000000074,-0.0005359376453823918
S049,14774.0,14803.984375,N2,0.021843750000000044,15.78041024949138,-33.56,22.19,55.75,4.81,30.460114083895014,906.25,905.7047526041666,0.4888058986931542,0.0,0.42934361238988983,63.081424770133125,0.32515222594037896,63.51377803280167,0.30416666666666664,210,0.28845555,0.0011479472320189662,2.524193393064645e-07,29.802666666666664,0.018245242911204957,-2.506945124496779e-05,65.667,0.13342038824707506,0.45000000000000284,0.00013253475817457706
S049,14804.0,14833.984375,N2,0.044130208333333344,15.3899766512752,-36.24,24.04,60.28,4.635,35.33927090257165,906.25,902.6041666666666,0.4948070173057371,0.0,0.4377181995556299,63.10014543649197,0.32879207243215125,63.51377803280167,0.321875,205,0.2877403333333334,0.0010652827428538519,6.979776198940998e-08,29.74666666666667,0.02255856575425103,-3.312500898573307e-05,66.02000000000001,0.23588132609428647,0.6299999999999955,0.0003448612046606957
S049,14834.0,14863.984375,N2,-0.18608854166666675,15.327274575031609,-32.05,21.69,53.739999999999995,4.45,35.77281424907052,890.625,899.31640625,0.4952508833914383,0.0,0.45111623709970805,63.09740312371702,0.32915656327303494,63.51377803280167,0.31145833333333334,203,0.2877509916666667,0.001218979159623834,-9.868615958283416e-07,29.701999999999998,0.01599999999999966,-1.7361115820614813e-05,66.57866666666665,0.23041604882376474,0.5999999999999943,0.00039048621703727644
S049,14864.0,14893.984375,N2,0.16342187500000002,16.46360457282532,-34.74,23.81,58.55,5.14,82.10374928422945,890.625,866.2841796875,0.436561493377508,0.045595976308831845,0.45960878404899963,63.30095422019191,0.29337657228532266,63.51377803280167,0.0,0,0.2861926083333334,0.0011790362115999293,-1.5948637138844828e-07,29.671333333333337,0.020612833111654513,-2.6250007120771303e-05,66.74633333333333,0.08447813655352124,0.21999999999999886,0.0001234375334845726
S049,14894.0,14923.984375,N2,-0.11439062499999997,16.621047586052715,-34.8,24.02,58.81999999999999,4.449999999999999,28.67770185171911,890.625,894.3359375,0.15612494995995993,0.0,0.4721359194012767,63.4369238698367,0.13079219857782773,63.51377803280167,0.0,0,0.2863099666666667,0.0011443405228437232,4.466663538048951e-07,29.602666666666668,0.02502443250549741,-3.423612039825241e-05,66.68133333333334,0.14800300297253566,0.37999999999999545,-0.00022923617329539985
S049,14924.0,14953.984375,N2,0.0006354166666666512,15.562235577151043,-34.55,23.7,58.25,4.775,30.063743510956037,906.25,910.9537760416666,0.1529193630552463,0.045595976308831845,0.4591611841777956,63.44209751220822,0.1340581396083261,63.51377803280167,0.0,0,0.28698242500000004,0.0014199040558109384,5.703632189570373e-07,29.510666666666665,0.029881246441354033,-4.715279056879204e-05,66.59466666666667,0.1502161405738025,0.45000000000000284,-0.00025562506934273543
S049,14954.0,14983.984375,N2,-0.03199999999999995,16.11866799643093,-33.85,24.2,58.05,5.05,33.127473902740476,890.625,882.3811848958334,0.1561249499599599,0.045595976308831845,0.47066276408910873,63.43614107154784,0.13603657846262346,63.51377803280167,0.0,0,0.286117925,0.0012405408172950327,-5.294018363177759e-07,29.45466666666667,0.021715329966535978,-2.8958341188785513e-05,66.69133333333333,0.26858559570874674,0.6700000000000017,0.0004664584598682895
S049,14984.0,15013.984375,N2,0.20403125000000003,15.948148782299366,-35.68,24.28,59.96,5.12,29.595455453085684,890.625,893.0094401041666,0.1428261375083551,0.05581428468591173,0.4766407608782064,63.434834811585276,0.13253588276880016,63.51377803280167,0.0,0,0.2858297333333334,0.001229865600606659,-3.090873234286381e-07,29.394,0.023888630489558048,-3.263889774275585e-05,67.07366666666667,0.09221291787066593,0.38999999999998636,0.00012392364472754955
S049,15014.0,15043.984375,N2,-0.18073437500000006,16.068666259092883,-33.23,23.3,56.53,4.445,34.30881389960526,890.625,899.6175130208334,0.1462753717308556,0.05581428468591172,0.481018838782733,63.431523813115554,0.1335230797259297,63.51377803280167,0.0,0,0.2862459583333334,0.0012036904945197685,-5.939821489751974e-07,29.31866666666667,0.02291045370325342,-3.437500932481927e-05,67.088,0.2177521526874087,0.6000000000000085,-0.00038381954856216285
S049,15044.0,15073.984375,N2,0.022380208333333287,15.69047601954845,-34.41,25.12,59.53,4.76,39.87572992653939,906.25,909.2366536458334,0.12801909579781012,0.0,0.48131312717283,63.43698186045322,0.11796512137465939,63.51377803280167,0.0,0,0.28523210833333335,0.0010662223485733346,1.6166779559130818e-07,29.267333333333333,0.016918103387265668,-1.430555943618661e-05,66.658,0.18434388155473636,0.5200000000000102,-0.00032729175545023764
S049,15074.0,15103.984375,N2,-0.014494791666666658,16.05721994458976,-35.98,23.51,59.489999999999995,4.995,41.01655424165411,906.25,904.1585286458334,0.13188915142607024,0.045595976308831845,0.48330527037784315,63.4334477374196,0.12828929828902425,63.51377803280167,0.0,0,0.28466650833333335,0.0013069626556500686,4.971913241078906e-07,29.242666666666665,0.018961950204436785,-1.9930560962065808e-05,66.377,0.028769196489767102,0.10000000000000853,6.979168559888801e-06
S049,15104.0,15133.984375,N2,0.1504010416666667,15.555628831029265,-38.02,30.78,68.80000000000001,4.85,38.062389081999704,890.625,897.6725260416666,0.10642856726723121,0.03225804701500421,0.487418752132656,63.43521022391159,0.11245227791552591,63.51377803280167,0.0,0,0.28480525,0.001156429888709211,-1.1995011934411102e-07,29.197333333333336,0.023935097428021614,-3.6597232149856646e-05,66.57300000000001,0.2577356526883065,0.6800000000000068,0.00045239595605359336
S049,15134.0,15163.984375,N2,-0.12154687500000004,16.202807757353696,-35.71,24.41,60.120000000000005,4.6,36.349378997428154,890.625,892.0084635416666,0.12801909579781012,0.045595976308831845,0.48439068074976654,63.43336590749991,0.12402141707793167,63.51377803280167,0.0,0,0.2848906500000001,0.001245240991736138,3.4180391216468846e-07,29.112666666666662,0.025681813712344015,-4.1944455822605725e-05,66.81599999999999,0.07450279636810103,0.269999999999996,7.659724300055539e-05
S049,15164.0,15193.984375,N2,-0.07183854166666667,14.820323911389877,-31.31,22.91,54.22,4.625,41.89071104331821,906.25,915.5517578125,0.11557806855349137,0.03225804701500421,0.4851796631718559,63.43556942681059,0.11810234104067052,63.51377803280167,0.0,0,0.28434636666666674,0.0011863668553847677,6.244285548037513e-07,29.04733333333333,0.01526069752301247,-1.4166670509621688e-05,66.80833333333334,0.18079607911186021,0.5600000000000023,-0.0003207986981333263
S049,15194.0,15223.984375,N2,0.06346354166666673,17.099359013745588,-38.02,25.01,63.03,5.305,36.095607722604555,906.25,903.1901041666666,0.10642856726723121,0.0,0.48789046862487484,63.43559790681625,0.11143699892228273,63.51377803280167,0.0,0,0.2854241416666667,0.001014366783563636,-4.135146521035849e-07,29.01866666666666,0.016878651868229996,-1.326389248695031e-05,66.10533333333333,0.2175734869468762,0.6300000000000097,-0.0003867362160200254
S049,15224.0,15253.984375,N2,0.11291666666666672,15.639382491716937,-33.24,23.73,56.97,5.005,27.608925031406137,906.25,903.1331380208334,0.11110243021644486,0.032258047015004204,0.4955356249106168,63.42641126520584,0.1196342354920497,63.51377803280167,0.0,0,0.28491200000000005,0.001321050263994527,4.040560991905691e-07,28.978666666666673,0.017650936393165225,-1.96527831089366e-05,66.08833333333334,0.11773086067618593,0.37000000000000455,0.00017920143750039052
S049,15254.0,15283.984375,N2,-0.07941666666666665,12.463516273062305,-31.06,21.78,52.84,3.61,52.11551879779275,875.0,880.7861328125,0.1289480677120315,0.09654963281764578,0.49607837082461076,63.42511583275003,0.14250123592884267,64.72248450113763,0.004166666666666667,4,0.2853174833333334,0.001330198117971744,3.1745885347734135e-07,28.95133333333333,0.01454494948618064,1.6666671187790217e-06,66.92833333333334,0.4721305139706853,1.460000000000008,0.000840243283486136
S049,15284.0,15313.984375,N2,0.08075520833333341,19.450786937874184,-54.72,40.5,95.22,5.640000000000001,28.325849554495996,890.625,884.7005208333334,0.05581428468591173,0.045595976308831845,0.4999305507323548,63.42108701067824,0.10253804486626374,63.51377803280167,0.0,0,0.2848159083333333,0.0014885601543988371,1.1366517840309707e-07,28.976666666666674,0.01490711984999881,1.4027781583056774e-05,67.40000000000002,0.19609521496796622,0.6499999999999915,0.00017395838052256448
S049,15314.0,15343.984375,N2,-0.14481770833333335,15.132911383667599,-32.41,21.7,54.11,4.145,31.57391730887272,890.625,897.5667317708334,0.04559597630883185,0.07880950133074055,0.49972214501883166,63.42019480096542,0.11056555038498338,63.51377803280167,0.0,0,0.2839835333333333,0.0012257645228817512,-1.0386005421550847e-06,28.94733333333333,0.015260697523012472,-2.0972227911302696e-05,67.64200000000001,0.4032567420391139,1.0799999999999983,-0.0006514585100527648
S049,15344.0,15373.984375,N2,0.1731510416666667,15.174956875216695,-33.4,23.07,56.47,4.95,27.603340136551708,890.625,886.5152994791666,0.0,0.07198059875565237,0.4997872811395754,63.42191486791235,0.10842579925688607,63.51377803280167,0.0,0,0.2830869833333333,0.0011746666476305215,-1.4873918965364052e-07,28.895333333333333,0.02418447619628889,-3.500000949435947e-05,67.30533333333334,0.1243042861511849,0.45000000000000284,1.0069447175957367e-05
S049,15374.0,15403.984375,N2,-0.17181250000000012,14.553670146587667,-32.34,21.99,54.33,4.1850000000000005,28.131931533963275,890.625,898.9583333333334,0.0,0.07880950133074056,0.49997287252798917,63.41945900861499,0.10373389643451443,63.51377803280167,0.0,0,0.28238246666666666,0.001108891901354171,-3.855751913995158e-07,28.826,0.021540659228538723,-3.1944453109933306e-05,67.14633333333333,0.1207334069574587,0.3499999999999943,0.0001530903193061833
S049,15404.0,15433.984375,N2,0.15653645833333338,14.51024620504292,-32.45,21.96,54.410000000000004,4.455,24.334718072586785,875.0,875.341796875,0.05581428468591173,0.06441510347391795,0.49984372557830503,63.4203042123894,0.10903489342174552,63.51377803280167,0.0,0,0.28280942500000006,0.0013962704947018583,9.488077660611254e-07,28.759333333333338,0.021123972690339363,-3.0694452770846987e-05,67.43033333333332,0.19980796336037787,0.519999999999996,0.0003477431498869213
S049,15434.0,15463.984375,N2,-0.14449999999999996,14.724478208072433,-42.27,22.34,64.61,4.43,38.4929039210597,890.625,898.0143229166666,0.0,0.12801909579781012,0.4995212551783957,63.41478360957574,0.13544279487231567,63.51377803280167,0.0,0,0.28290551666666663,0.0013248284290385895,-7.150006279841046e-07,28.708666666666666,0.014544949486180642,-1.4166670509621692e-05,67.84333333333332,0.15278161611339747,0.4299999999999926,1.4652781752599605e-05
S049,15464.0,15493.984375,N2,0.1390885416666667,15.532746891395622,-34.18,24.12,58.3,4.63,29.189142014438097,890.625,895.1009114583334,0.032258047015004204,0.11557806855349137,0.4996483138168286,63.415863946552086,0.1252992912774412,63.51377803280167,0.0,0,0.28277741666666667,0.0012504864558998071,2.2787332570348084e-08,28.68866666666667,0.01627540748764459,-1.583333762840071e-05,67.36733333333333,0.27855500155066204,0.75,-0.00048347235337249374
S049,15494.0,15523.984375,N2,-0.012541666666666748,14.595587460996464,-30.61,20.96,51.57,4.5600000000000005,33.014335715070054,906.25,907.0719401041666,0.0,0.11987768650679834,0.4999989149293782,63.412553555457784,0.1255384782887616,63.51377803280167,0.0,0,0.2823290916666667,0.001267384590379154,3.396904133274756e-07,28.645333333333333,0.022910453703253512,-3.2013897573215615e-05,66.714,0.10147577707676587,0.3100000000000023,-8.895835746483276e-05
S049,15524.0,15553.984375,N2,-0.16482291666666662,15.380938333896976,-40.88,32.84,73.72,3.86,48.09200920296313,890.625,894.0836588541666,0.0,0.1356408400888169,0.49998263858747016,63.41004521376734,0.13509004891080997,63.51377803280167,0.0,0,0.2826920166666666,0.0012504927161145422,-7.127033183331386e-07,28.577999999999996,0.022271057451319614,-3.347223130214536e-05,66.563,0.10985293198939479,0.3499999999999943,2.8020840934472782e-05
S049,15554.0,15583.984375,N2,0.11018750000000001,14.970120701551155,-31.82,23.12,54.94,4.31,31.76170071943956,875.0,887.3291015625,0.0,0.1529193630552463,0.4997872811395754,63.408089712257635,0.14646060546451006,63.51377803280167,0.0,0,0.2832150666666667,0.0012974316149822788,1.0599034993227696e-06,28.531999999999996,0.018867962264113334,-2.201389486054012e-05,66.72266666666668,0.11635959588944839,0.4200000000000017,0.0001153472535121679
S049,15584.0,15613.984375,N2,0.08132812500000001,14.549625595005322,-30.38,25.2,55.58,4.365,42.20461949374704,875.0,891.9026692708334,0.032258047015004204,0.1356408400888169,0.4999902342796308,63.40805799391646,0.1348385706224398,63.51377803280167,0.0,0,0.28283078333333334,0.0012447692167849946,-9.248691744979221e-07,28.504,0.014742229591665249,-1.8541671696418817e-05,67.21300000000001,0.06608832473793229,0.28000000000000114,-1.9687505340572542e-05
S049,15614.0,15643.984375,N2,-0.138984375,13.960972743977734,-29.33,21.59,50.92,3.84,34.04639420352948,890.625,890.673828125,0.03225804701500421,0.17677362623014653,0.49914858064063006,63.3933460058717,0.1592132108124092,63.51377803280167,0.0,0,0.2831082916666667,0.0014358006848435435,1.1449662394114027e-06,28.469333333333335,0.02159217965426907,-2.8125007629396727e-05,67.36466666666668,0.07809111487373278,0.23000000000000398,9.861113786109595e-05
S049,15644.0,15673.984375,N2,0.05979687500000005,14.239291550670288,-29.58,21.06,50.64,4.175000000000001,24.52343124330696,875.0,879.4596354166666,0.0,0.1529193630552463,0.4996863165332382,63.40223230392375,0.14670450783854858,63.51377803280167,0.0,0,0.28338586666666665,0.001163346866683447,3.455630277677428e-07,28.422000000000004,0.016812693617224296,-1.583333762840071e-05,67.64633333333333,0.2119509901421145,0.5600000000000023,0.00037024315599044135
S049,15674.0,15703.984375,N2,0.006479166666666665,14.612262387559953,-30.73,21.53,52.260000000000005,4.465,30.99995928252359,890.625,892.1549479166666,0.0,0.16532992583014122,0.4998686893547366,63.4002905931662,0.15487425678420633,63.51377803280167,0.0,0,0.28326843333333335,0.0011376391470448155,1.84578175070033e-07,28.38533333333333,0.01687865186822919,-1.812500491672187e-05,67.78800000000001,0.08166598639172035,0.19999999999998863,-0.0001331944805757521
S049,15704.0,15733.984375,N2,-0.11296875000000005,14.020044933470201,-29.18,21.67,50.85,3.92,39.755369578139096,890.625,884.5784505208334,0.04559597630883185,0.1462753717308556,0.4994745502914926,63.40149008182921,0.14438514597812777,63.51377803280167,0.0,0,0.28406885833333334,0.0013215975641613423,-6.311062909901991e-07,28.349333333333334,0.012092238098145584,-5.069445819619969e-06,67.58099999999999,0.0776895531372577,0.23999999999999488,-0.0001018403054037312
S049,15734.0,15763.984375,N2,0.01669270833333331,14.263607956138069,-32.3,22.19,54.489999999999995,4.195,30.355860578879575,875.0,881.25,0.0,0.1428261375083551,0.49480701730573706,63.394707486938294,0.1429602935386276,63.51377803280167,0.0,0,0.28383415833333336,0.001087968603988122,4.6892091713348904e-07,28.330666666666666,0.015040685563572354,-2.0208338815197456e-05,67.669,0.11790815634778419,0.3500000000000085,0.0002031597773328408
S049,15764.0,15793.984375,N2,0.17574479166666668,13.017854372596075,-28.86,19.47,48.33,4.225,27.57297408930582,890.625,886.2141927083334,0.0,0.162326296048696,0.4917185265728758,63.386707463556256,0.1489695591109578,63.51377803280167,0.0,0,0.28477324166666673,0.0012315621922030116,7.589422631679306e-07,28.304,0.014742229591663674,-1.4513892826033986e-05,67.87433333333334,0.031057294723716027,0.07000000000000739,-4.6770846020741596e-05
S049,15794.0,15823.984375,N2,-0.1109322916666667,14.115908700956837,-30.28,20.77,51.05,3.91,28.64481490665657,875.0,879.8909505208334,0.0,0.16232629604869597,0.4827481640882289,63.37952125029697,0.15081252099612472,63.51377803280167,0.0,0,0.28510408333333337,0.0011967156553343132,4.385548064656055e-07,28.29866666666667,0.013349989596333572,3.1250008477106652e-06,67.828,0.04261455150532623,0.15000000000000568,-3.4722231641231096e-05
S049,15824.0,15853.984375,N2,-0.05177604166666662,13.287942208926083,-29.75,19.74,49.489999999999995,4.109999999999999,28.122268355722046,875.0,877.3763020833334,0.0,0.18483053424390924,0.48858053327982687,63.37772658567245,0.16208896245057583,63.51377803280167,0.0,0,0.28605385000000005,0.0012537177622974083,9.091538924571169e-07,28.30666666666667,0.013743685418725242,5.48611259931428e-06,67.89933333333333,0.03906689419729144,0.18000000000000682,4.562501237657685e-05
S049,15854.0,15883.984375,N2,0.1314322916666667,13.815187007895474,-30.16,20.09,50.25,4.65,28.654853094348557,890.625,883.5774739583334,0.0,0.1462753717308556,0.47857640274452407,63.3807256879508,0.1379417826498445,63.51377803280167,0.0,0,0.2862886333333333,0.0012369694750567805,1.420560281184969e-07,28.33133333333333,0.018571184369579767,2.222222825038871e-05,68.262,0.0914111590562105,0.3100000000000023,0.00010993058537613479
S049,15884.0,15913.984375,N2,-0.015177083333333305,13.750785430972353,-29.58,20.29,49.87,4.14,46.060217317852626,875.0,874.3326822916666,0.0,0.1592592172022985,0.48274816408822885,63.380299437068956,0.14483301008621602,63.51377803280167,0.0,0,0.28651279166666666,0.0011992311279582055,-8.932886537783965e-07,28.380000000000003,0.022360679774997685,3.35416757654281e-05,68.12433333333333,0.1242761262493951,0.37999999999999545,0.00017135421314947152
S049,15914.0,15943.984375,N2,-0.08888020833333331,14.11325505236655,-33.58,21.43,55.01,4.0649999999999995,37.054334724926235,921.875,915.7389322916666,0.0,0.1682735042192389,0.4785764027445241,63.37534726339412,0.1505021955673708,63.51377803280167,0.0,0,0.287249275,0.0012911676754169758,-1.9735465423031068e-08,28.410666666666668,0.01412641340027776,-4.861112429772156e-07,67.96666666666667,0.3159781989666722,0.9599999999999937,-0.0005655557089723593
S049,15944.0,15973.984375,N2,0.11369791666666668,13.959970379341033,-32.48,23.16,55.64,4.52,25.8347377087733,875.0,869.6858723958334,0.0,0.1874276480775686,0.4835802171190307,63.37317308137517,0.1655050796775632,63.51377803280167,0.0,0,0.2879538333333333,0.0012880293625880204,4.4339812375166173e-07,28.432666666666666,0.020483055327649186,2.7916674239548624e-05,67.50466666666667,0.10252587749224767,0.28000000000000114,7.666668746383595e-05
S049,15974.0,16003.984375,N2,-0.048536458333333435,13.688662804250182,-29.97,20.75,50.72,3.62,38.75480690404604,890.625,891.5201822916666,0.0,0.194978186101819,0.4838527650679377,63.37105628439213,0.17034396693673462,63.51377803280167,0.0,0,0.2878364083333333,0.0013907384638854852,2.9581757156509627e-07,28.495333333333335,0.015434449203721435,1.5972226554966877e-05,67.65633333333334,0.30170055058322776,0.8100000000000023,0.0005260765315962829
S049,16004.0,16033.984375,N2,-0.1172239583333333,13.561582125309323,-30.53,21.78,52.31,3.575,26.157628320706966,859.375,865.7145182291666,0.0,0.20219874281810518,0.4827481640882289,63.36798621441161,0.17792263339277947,63.51377803280167,0.0,0,0.287420075,0.0011031464632472916,4.561895768743445e-07,28.541999999999998,0.03673327283721582,6.069446090887066e-05,68.15433333333333,0.03904555743686697,0.14000000000000057,4.434028980585042e-05
S049,16034.0,16063.984375,N2,0.2012552083333333,15.037652833716063,-39.46,29.36,68.82,4.285,42.456452461238015,890.625,895.5810546875,0.0,0.18483053424390922,0.48358021711903065,63.37393349192851,0.1669942931798765,63.51377803280167,0.0,0,0.2869930833333333,0.001123596936801138,6.3797760361828855e-09,28.612666666666662,0.0217460085737333,2.4444451075426016e-05,68.222,0.17688791177842972,0.46999999999999886,-0.0002709722957281623
S049,16064.0,16093.984375,N2,-0.2327552083333333,13.958109961986628,-30.67,20.65,51.32,3.95,31.48844559835391,859.375,868.4407552083334,0.0,0.1899835519196333,0.48330527037784315,63.37221490573487,0.1673407940555712,63.51377803280167,0.0,0,0.2870358416666667,0.001601442323843492,-6.990425073357508e-07,28.718,0.042457822208241285,7.291668644658289e-05,68.10333333333334,0.09900617264707415,0.28999999999999204,-0.00013763892622583866
S049,16094.0,16123.984375,N2,0.030677083333333303,13.751524834385634,-32.17,21.81,53.980000000000004,3.65,29.291827862053196,890.625,882.6090494791666,0.0,0.19741988090108853,0.4782600118020414,63.36669387909981,0.17267068595346338,63.51377803280167,0.0,0,0.287174575,0.001159737144518107,1.8514696862710595e-07,28.8,0.01693123346560003,1.8125004916721862e-05,68.12333333333333,0.16621939985720097,0.4299999999999926,0.0002483334006980774
S049,16124.0,16153.984375,N2,0.20779687500000005,14.241304945562055,-31.8,23.14,54.94,4.32,32.25883537656669,875.0,865.7552083333334,0.0,0.21358993356949715,0.47981726664950275,63.36227317159526,0.17808292489327418,63.51377803280167,0.0,0,0.28686500833333334,0.0010518813819044583,-4.756023425570618e-07,28.830666666666666,0.027560035478126695,4.298612277184467e-05,68.43266666666666,0.05458530530789118,0.15000000000000568,8.750002373590246e-05
S049,16154.0,16183.984375,N2,-0.14032291666666674,16.033018771815602,-36.13,26.14,62.27,3.84,26.5884459690286,859.375,852.7099609375,0.0,0.19249988726547926,0.4763094159495718,63.36709699253204,0.16949062620450475,63.51377803280167,0.0,0,0.28699308333333334,0.0010610010963184244,3.838885589975484e-07,28.974000000000004,0.0490985403720589,8.611113447025182e-05,69.10433333333334,0.31149835027207134,1.0999999999999943,0.0005442709809762856
S049,16184.0,16213.984375,N2,-0.2105937500000001,27.671221412130105,-61.79,49.25,111.03999999999999,6.2,16.02643896219367,812.5,811.62109375,0.0,0.20219874281810518,0.46266419757986704,63.3572313368233,0.17013425753957362,63.51377803280167,0.0,0,0.288508825,0.002041979936493418,2.467467032190494e-06,29.19333333333333,0.07712904050284078,0.00013743059283598944,70.85300000000001,0.6929846078136714,2.1599999999999966,0.0012420489480384535
S049,16214.0,16243.984375,W,-0.4022760416666666,43.80307851120989,-430.96,139.47,570.43,6.225,21.33120255707012,796.875,794.7184244791666,12.050406106284921,1.203806174413288,17.232643712779453,63.58217542471583,1.418512105692376,88.9325587172662,0.057291666666666664,16,0.33938606666666665,0.06679734098846218,1.9878251052042936e-05,29.449333333333335,0.07420392322662088,0.00011062503000896042,72.95066666666666,0.7258233638810173,2.3700000000000045,0.0013028475756422457
S049,16244.0,16273.984375,W,0.8547031249999999,42.44584485596753,-191.92,214.46,406.38,3.66,31.453533690664617,765.625,756.9661458333334,4.835496889144957,0.48465605645194976,3.0664725864197595,64.02768356937406,0.44195030652821676,65.29931086925804,0.13333333333333333,95,0.237351875,0.06867948005270115,0.00010475329382413567,29.671333333333337,0.07692998259600867,0.0001363889258867526,73.22633333333333,0.7142197763216085,2.489999999999995,-0.00030572924960103323
S049,16274.0,16303.984375,W,-0.3614375,62.292932195195796,-286.79,207.9,494.69000000000005,1.495,12.20309995289673,718.75,722.8759765625,22.07214828279541,7.763701765534703,16.092619161996456,65.07924997874512,3.9471209597211163,103.860483341837,0.08645833333333333,37,0.5855028916666666,0.05655721592714701,5.98608684518415e-05,29.913999999999998,0.04176122603564196,3.472223164123032e-05,74.40033333333334,0.3236096757240457,0.9899999999999949,0.00018267366066451282
S049,16304.0,16333.984375,W,0.1276666666666666,18.259989576865106,-60.65,36.58,97.22999999999999,1.8050000000000002,59.096581495043885,671.875,688.2649739583334,0.8625880591117768,0.3234941073651883,0.5061042314143951,64.34077876508792,0.31888540576841984,65.5286197016235,0.29375,159,0.5379642833333332,0.02227067498909097,-3.999918749977957e-05,29.90533333333333,0.03922017621355342,5.701390435489941e-05,75.86533333333334,1.6212685019932878,4.560000000000002,0.0028688202226617374
S049,16334.0,16363.984375,W,0.19050520833333337,19.263786189078058,-39.25,32.82,72.07,3.38,35.692167225956425,781.25,790.6331380208334,0.43539174569831046,0.09090593428863095,0.4382916943942698,64.26533350510768,0.25255588942974516,64.96922348312314,0.2677083333333333,145,0.4679689916666667,0.017780544990005153,-3.194592034123274e-05,30.153999999999996,0.09541488353501261,0.000170000046115464,77.80099999999999,0.2521685943966866,0.9500000000000028,2.9548619126686224e-05
S049,16364.0,16393.984375,W,-0.5082552083333333,25.215152889422505,-139.67,142.84,282.51,3.145,43.00917371212045,796.875,805.7373046875,6.602387953817039,10.423151314901522,6.937552474150896,64.4107505665527,3.21244374062284,132.9473580030833,0.014583333333333334,8,0.3980485166666667,0.03762076267412791,-5.8784347543497045e-05,30.450666666666667,0.06228607834464729,9.868058232437605e-05,78.29899999999999,1.261087757982501,3.719999999999999,-0.001968993589679249
S049,16394.0,16423.984375,N2,0.43488020833333363,46.41251346604329,-293.27,319.43,612.7,3.7199999999999998,61.46740172988588,812.5,811.1328125,20.393736166440636,11.630240007793859,4.758216463647966,64.64332110985607,3.058525388925815,128.1327436684316,0.03125,15,0.3081689083333334,0.03386854269943222,-3.053267473217087e-05,30.490000000000002,0.021291625896895854,-2.055556113161023e-05,75.39033333333333,0.1733682657107558,0.7399999999999949,-5.670140427012857e-05
S049,16424.0,16453.984375,N2,-0.09354687500000004,20.751550483560525,-49.0,37.74,86.74000000000001,4.244999999999999,46.98794779788394,812.5,829.1097005208334,0.4933542717966472,0.06441510347391795,0.3129094539781259,64.14948586366512,0.232120860962199,64.91532946846992,0.10625,78,0.27652275,0.009701926424899681,-1.722812272898295e-05,30.484000000000005,0.017243356208503945,-1.3263892486950173e-05,74.35633333333334,0.4772594216519517,1.5300000000000011,-0.0008276738356320075
S049,16454.0,16483.984375,N2,0.06677604166666669,18.655659869835997,-44.05,29.91,73.96,4.12,44.942904355325325,796.875,801.0660807291666,0.45500567571246353,0.0,0.2732186624299299,64.1673911386784,0.21183198339225034,64.8382603097893,0.08125,66,0.2473100166666667,0.008785634286515057,-1.5581897021998976e-05,30.434,0.03629508690350909,-5.680557096505167e-05,74.03399999999998,0.24283876681178215,0.9200000000000017,6.812501848009528e-05
S049,16484.0,16513.984375,N2,-0.14940104166666665,18.56126043576151,-46.33,33.78,80.11,3.9850000000000003,43.03958410300637,828.125,839.1682942708334,0.47981726664950275,0.0,0.2862290749265932,64.15321699115617,0.2262918888559612,64.8382603097893,0.08854166666666667,77,0.22058418333333332,0.007125335633010948,-1.2525474751919146e-05,30.310666666666666,0.04273432136143328,-7.076390808482813e-05,73.249,0.418213262981141,1.3299999999999983,-0.0004811459638525289
S049,16514.0,16543.984375,N2,-0.09994791666666661,16.44998930779148,-40.57,29.56,70.13,4.4350000000000005,47.04575625771343,859.375,860.7503255208334,0.40232478717449166,0.0,0.2716154572133593,64.1911941947287,0.1962256896874394,64.8382603097893,0.08020833333333334,65,0.19989939166666665,0.0052599419155472185,-8.998945366467383e-06,30.19,0.03829708431025389,-6.500001763238394e-05,71.99333333333334,0.9055728696367965,2.490000000000009,-0.0016027087680959115
S049,16544.0,16573.984375,N2,0.17650520833333325,17.618148246344767,-47.59,30.55,78.14,5.15,48.132853094322314,890.625,904.9560546875,0.3799671038392666,0.0,0.318518434404597,64.22097781491891,0.22677116738663816,64.8382603097893,0.11458333333333333,96,0.18735824999999998,0.002492128896646396,-3.4129245369261387e-06,30.070666666666664,0.032448249396367194,-5.3680570117341006e-05,70.01466666666666,0.6387108544212748,2.1699999999999875,-0.0011046530774341022
S049,16574.0,16603.984375,N2,0.04523437499999995,16.63924507963232,-40.28,29.09,69.37,4.455,61.91800249027002,875.0,883.2438151041666,0.3146988612370386,0.0,0.29292696461272083,64.22555755871687,0.21076749894227897,64.8382603097893,0.09479166666666666,75,0.17974833333333334,0.002962183564909881,-4.451634454110905e-06,29.964000000000002,0.03147485769096777,-5.284723655795278e-05,67.87400000000001,0.24900602402351615,1.0,-0.0001609028214254609
S049,16604.0,16633.984375,N2,-0.054458333333333185,17.261130799499508,-40.69,26.64,67.33,4.77,57.397511129439806,906.25,913.671875,0.3041220715025465,0.0,0.35083605501715465,64.25936034652939,0.23766121872011647,64.8382603097893,0.14375,104,0.174272925,0.0023106854472302527,-2.8169836200584933e-06,29.89,0.026832815729997433,-4.000001085069717e-05,66.87233333333333,0.34597382688418565,1.1299999999999955,-0.0004946181897293258
S049,16634.0,16663.984375,N2,0.08425520833333329,15.075474065496316,-36.47,23.74,60.209999999999994,4.295,53.7286896316515,875.0,880.4606119791666,0.318518434404597,0.03225804701500421,0.3410547747430022,64.2509641471462,0.2306284793005126,64.91532946846992,0.13541666666666666,98,0.17062270000000002,0.002120768286887243,-2.3540791976126253e-06,29.818,0.022271057451320634,-3.1250008477108224e-05,67.03066666666668,0.30855505541511213,0.9000000000000057,-0.0002977778585551923
S049,16664.0,16693.984375,N2,-0.005067708333333373,14.866403387602382,-38.43,25.59,64.02,4.425,46.32267757508762,890.625,900.6591796875,0.2779493827570048,0.0,0.2943625410196677,64.23364062579486,0.20113086013847445,64.8382603097893,0.09583333333333334,78,0.16682296666666668,0.0017761234235141364,-1.1770385137365796e-06,29.772666666666666,0.016110727964792418,-1.847222723313416e-05,67.53433333333332,0.3669485280284167,1.1899999999999977,0.000601493218721032
S049,16694.0,16723.984375,N2,-0.04208854166666654,14.811641204446039,-39.68,25.38,65.06,3.5149999999999997,42.399384539663764,890.625,891.2679036458334,0.2599996661322642,0.0,0.3247177593909654,64.25219899304521,0.21342342448534263,64.8382603097893,0.11979166666666667,89,0.16627872500000002,0.0015701734933996994,-5.676262390479183e-07,29.729333333333333,0.01671991493864558,-1.6597226724507763e-05,67.38233333333332,0.11247765210130471,0.4399999999999977,-0.00015378476393900875
S049,16724.0,16753.984375,N2,-0.1461770833333333,14.530974225694854,-37.76,25.63,63.39,3.5700000000000003,65.27373750055735,921.875,918.75,0.17860558949042502,0.06451609403000842,0.17950549357115012,64.21264197832652,0.13748392605709697,65.19969325081216,0.040625,35,0.16416529166666666,0.001772853544410975,-2.934894459335515e-07,29.691333333333333,0.017074997966487516,-1.9305560792523955e-05,67.101,0.10869989267090714,0.45000000000000284,-8.98958577191427e-05
S049,16754.0,16783.984375,N2,0.1993385416666667,14.844358462265147,-36.81,51.46,88.27000000000001,4.0649999999999995,54.045134311306434,906.25,917.6513671875,0.18199082318134127,0.0,0.21137108216357317,64.22948942194719,0.1471289546789689,65.12296062065974,0.06875,59,0.16456026666666668,0.0017653148526222998,-2.1538851328898475e-07,29.654666666666667,0.014313940369057055,-1.7986115990158996e-05,65.98166666666665,0.2994114597376374,1.1600000000000108,-0.0004683681826085581
S049,16784.0,16813.984375,N2,0.04181770833333338,15.530794375546916,-36.79,25.3,62.09,4.735,68.46374827039753,937.5,945.7763671875,0.22055554462286564,0.0,0.21358993356949718,64.23991519237403,0.1546643998785504,65.12296062065974,0.09270833333333334,80,0.16393046666666666,0.0017279230882446372,-1.0391031464581014e-06,29.63133333333333,0.015434449203719973,-2.0277783278478105e-05,64.95633333333333,0.3944319403338888,1.1899999999999977,-0.000706284913814269
S049,16814.0,16843.984375,N2,0.048802083333333475,15.33915057752533,-38.0,25.92,63.92,4.575,60.82951468409901,937.5,933.7565104166666,0.21928505991061042,0.0,0.22008274564480418,64.24046354394874,0.1558909616477423,65.12296062065974,0.09479166666666666,86,0.16341809166666668,0.0016468810622700951,-8.321796962292974e-07,29.603333333333335,0.01659986613065129,-6.38889062198625e-06,64.312,0.2235233022900891,0.6999999999999957,-0.00032131953160794606
S049,16844.0,16873.984375,N2,-0.20126562499999992,14.848117470191633,-37.71,24.07,61.78,4.18,60.74331213702837,906.25,929.1097005208334,0.25642566810654677,0.03225804701500421,0.22008274564480418,64.24541832198884,0.15869141751490384,65.12296062065974,0.11458333333333333,90,0.16361023333333333,0.0016613534579439182,-1.3124309115752258e-07,29.57266666666666,0.014360439485691705,-4.72222350320723e-06,63.982,0.15952847185795083,0.5499999999999972,0.00025861118126388266
S049,16874.0,16903.984375,N2,0.14740104166666665,15.022829941237177,-37.87,25.77,63.64,4.78,59.232131108269876,921.875,925.4313151041666,0.2813348637399133,0.0,0.24016912082368588,64.25735069278394,0.1712900403130227,65.12296062065974,0.14166666666666666,109,0.163407475,0.0017890791251483694,-9.202064128163959e-08,29.552666666666664,0.016110727964792418,-2.1666672544127288e-05,64.28,0.24266575091402354,0.7899999999999991,0.00022451394979219685
S049,16904.0,16933.984375,N2,-0.29095833333333326,13.06779936437006,-31.95,20.33,52.28,3.47,48.38335778133603,921.875,926.6194661458334,0.3172537731804339,0.05581428468591172,0.2382571993782256,64.26428125678333,0.18276911403618054,65.12296062065974,0.165625,120,0.16312990833333335,0.0016782031064794295,-1.2202585775441018e-07,29.523333333333326,0.012995725793078644,-1.2222225537712676e-05,64.63433333333333,0.1521771628362442,0.4200000000000017,2.545139579302195e-05
S049,16934.0,16963.984375,N1,0.21585416666666654,14.593992474773058,-36.98,23.66,60.64,4.55,66.60203184656635,890.625,883.6263020833334,0.35568150302935664,0.09090593428863095,0.3206980234148976,64.29984615065229,0.23182608951250613,65.12296062065974,0.11145833333333334,86,0.16337538333333332,0.0016256737535728205,-3.302618083392471e-07,29.512666666666664,0.012364824660661543,-1.250000339084263e-06,65.00933333333333,0.16697172082587977,0.75,0.00017548615871477915
S049,16964.0,16993.984375,N2,0.06275000000000004,17.775842940045536,-58.15,37.82,95.97,3.6900000000000004,69.80588967312116,953.125,956.0709635416666,0.2397553730135967,0.10152910775842672,0.40155405579102577,64.33318914732071,0.2760268134137229,65.12296062065974,0.2,147,0.16303386666666667,0.0015824283023954688,1.7013199059569966e-07,29.48266666666667,0.015040685563571845,-1.631944887137874e-05,65.71499999999999,0.4018353725926424,1.1000000000000085,-0.0006019793299640132
S049,16994.0,17023.984375,N2,-0.14816145833333336,16.404639257595633,-40.49,26.01,66.5,4.675,48.518106940044206,875.0,891.1702473958334,0.298426137799996,0.09636964965693294,0.41931967883174237,64.32558643182499,0.2605542844524678,65.22269543648132,0.178125,107,0.16301251666666663,0.0016008881023946906,-1.2222833176766642e-07,29.472000000000005,0.013999999999999702,-9.513891469696917e-06,66.01833333333335,0.34981979487857606,1.0499999999999972,0.0004141320567849547
S049,17024.0,17053.984375,N2,0.11965104166666667,14.934338808915449,-40.31,24.24,64.55,4.6,58.84348679587952,906.25,911.4095052083334,0.15925921720229846,0.2068462551362458,0.3860847250676405,64.68232069812466,0.2822778270099941,64.8382603097893,0.0,0,0.162212025,0.0018097399742435323,2.960059396717485e-07,29.444,0.01724335620850305,-1.409722604633923e-05,66.159,0.510818624040536,1.3100000000000023,0.0008157988324107069
S049,17054.0,17083.984375,W,-0.04937499999999998,13.962215478487229,-33.19,22.26,55.45,4.42,53.655490808405524,890.625,904.5654296875,9.506585744947639,1.9440078875011455,1.5565595408357071,64.67578928810953,0.807251485014668,74.16872656315464,0.029166666666666667,10,0.15397230833333334,0.02248047306582457,-2.2352906020211043e-05,29.418666666666674,0.02291045370325229,-2.2708339493364173e-05,66.309,0.15996562130657893,0.5100000000000051,-9.510419246533096e-05
S049,17084.0,17113.984375,N2,-0.07852604166666687,126.98183749664895,-702.8,541.64,1244.44,1.36,128.66825109207932,984.375,887.9069010416666,20.498249814135555,6.364056170203088,10.262268233950794,65.32353739407672,3.5830974483898874,99.62931295557549,0.05520833333333333,27,0.25138336666666666,0.17667320760120617,-0.00013554818347118693,29.398666666666664,0.018390818965511233,9.930558249391681e-06,67.631,1.5451652554554378,4.909999999999997,0.0025869104239665875
S049,17114.0,17143.984375,N2,-0.08056249999999995,20.217588748111393,-52.95,36.34,89.29,5.324999999999999,64.05269888979488,875.0,880.17578125,0.4454583703582437,0.0,0.09636964965693294,65.18832947368362,0.21754408856357388,65.54387843269576,0.2677083333333333,105,0.17536168333333332,0.0034935261245703526,-5.450875176561191e-06,29.424000000000003,0.015620499351812976,9.930558249391673e-06,72.25633333333332,0.32727647163963536,1.5,0.0004457292875784749
S049,17144.0,17173.984375,N2,-0.05402604166666677,15.760385213320088,-41.97,29.26,71.23,4.625,64.10694131517184,937.5,945.3369140625,0.41339864235384227,0.0,0.2157809420003434,65.41321490357701,0.22328825566323499,65.54387843269576,0.0,0,0.16909633333333338,0.0020849006504440972,-1.9385335119719795e-06,29.436,0.01645195023900374,4.791667966489689e-06,70.88633333333334,1.784922936400585,5.930000000000007,-0.0030824661139502254
S049,17174.0,17203.984375,N2,0.0009895833333333807,17.481220461180378,-46.66,33.19,79.85,4.975,72.80051835438003,921.875,934.521484375,0.20912350152216008,0.06441510347391795,0.3726648940588433,65.434901951294,0.2274458716772688,65.54387843269576,0.0,0,0.1675060416666667,0.001699544534063142,5.872451679810051e-07,29.45333333333333,0.012736648783028263,-3.472223164122963e-07,65.08866666666667,0.6386638830837046,2.450000000000003,-0.001074722513759363
S049,17204.0,17233.984375,N2,0.45753125,16.818996921545,-56.46,33.53,89.99000000000001,4.98,80.70994158474906,921.875,931.73828125,0.08507936450096985,0.03225804701500421,0.42555111326373,65.41775302977469,0.22565874399282107,65.54387843269576,0.0,0,0.1670151,0.0017205895326893102,-1.1892616073300838e-06,29.457333333333334,0.013148721948877068,2.4305562148860734e-06,64.252,0.19492562684264886,0.5799999999999983,-0.00012423614481232157
S049,17234.0,17263.984375,N2,-0.5199270833333334,17.915418687977027,-45.78,31.46,77.24000000000001,4.195,70.78472040055529,921.875,928.3528645833334,0.05581428468591172,0.09636964965693294,0.48358021711903065,65.34446647945398,0.25550704265895186,65.54387843269576,0.0,0,0.16504053333333335,0.002216286371889299,-2.437638682085149e-06,29.45133333333333,0.01359738536958047,2.5000006781685328e-06,64.97200000000001,0.37160373159231513,1.2399999999999949,0.00037659732438078466
S049,17264.0,17293.984375,N2,0.5115260416666667,20.281323169214414,-82.91,97.37,180.28,4.68,82.25654303160827,937.5,929.345703125,0.6615354285780082,0.21794494717703367,0.8177713616898062,65.34017179012794,0.2895262277762574,66.21933252457322,0.0020833333333333333,2,0.16567015833333337,0.004074856792976152,5.573224819125659e-06,29.45333333333333,0.010434983894998797,-3.263889774275585e-06,64.49933333333334,0.14901752320523534,0.4300000000000068,-0.000138402815321948
S049,17294.0,17323.984375,N2,-0.3219739583333333,16.010303447095307,-44.53,29.36,73.89,4.494999999999999,69.44600712819343,921.875,912.2314453125,0.21794494717703367,0.45871078208084687,0.0,65.35630135684578,0.3302745622849702,65.58963332722634,0.0,0,0.16833865833333334,0.0033499896430084527,-4.464158546049956e-06,29.45266666666667,0.013399834161494236,1.94444497190886e-06,64.45,0.34445125441296864,1.2800000000000011,0.00010263891673147788
S049,17324.0,17353.984375,W,0.11888541666666677,16.918479012341425,-44.37,30.57,74.94,5.04,90.62169058007807,890.625,909.4970703125,0.13615185047912087,0.4996863165332382,0.14789832632777003,65.24607703217352,0.3527490775052775,65.91661399070799,0.0020833333333333333,1,0.15621378333333336,0.008461915712161297,-1.3206756186728564e-05,29.454,0.014966629547095446,-1.0000002712674133e-05,65.14433333333334,0.4768066228100813,1.6200000000000045,0.00043920150802992353
S049,17354.0,17383.984375,N2,-0.33277083333333335,15.675088972686861,-49.51,27.85,77.36,4.23,80.35763431748634,890.625,903.6702473958334,0.10172129679778086,0.46351240544347894,0.032258047015004204,65.10573910093672,0.31954830739712164,65.58963332722634,0.3020833333333333,146,0.1476752083333333,0.0019423867787502803,-1.4606659778282265e-06,29.45066666666667,0.015902480589168416,5.486112599314281e-06,67.11833333333333,0.5924811295635408,1.769999999999996,0.0006210071129034046
S049,17384.0,17413.984375,W,0.16939583333333336,20.270209929166562,-56.72,36.69,93.41,5.92,75.57903590142037,906.25,907.0068359375,0.0,0.3726779962499649,0.05589199343873463,65.0079213791535,0.2589072455485824,65.58963332722634,0.165625,107,0.1510799083333333,0.0038537960311789384,5.179637038747028e-06,29.46266666666667,0.01412641340027776,-7.291668644658222e-06,66.849,0.12827964244831072,0.3999999999999915,0.00014454865032243846
S049,17414.0,17443.984375,N2,-0.19619791666666658,17.709838732749535,-99.33,61.28,160.61,2.3099999999999996,71.33193168496011,765.625,803.7841796875,2.614561752898987,1.7020817395953372,2.554272020665684,65.17087815773084,0.6625192954689053,70.52659073002182,0.01875,7,0.1384960583333333,0.011175674313955164,-1.674787759002756e-05,29.478666666666673,0.019787762772874768,2.479167339183901e-05,66.94033333333333,1.0208117140567865,3.6199999999999903,0.0012285072776983717
S049,17444.0,17473.984375,N2,0.2917291666666666,20.9720183178082,-52.58,41.34,93.92,5.855,66.49210447511572,859.375,875.537109375,0.11987768650679832,0.4928294424798503,0.4994256684071103,64.9809819606795,0.43673038117704266,66.11353870426238,0.18645833333333334,148,0.12889019166666665,0.001925875970806673,-1.7922465799279963e-07,29.496,0.012806248474866978,1.0069447175958073e-05,71.71133333333334,0.7283485124276401,2.549999999999997,0.0010209724991787365
