participant_id,window_start_time,window_end_time,sleep_stage,BVP_mean,BVP_std,BVP_min,BVP_max,BVP_range,BVP_median,SDNN,median_nni,IBI_mean,x_std,y_std,z_std,mag_mean,mag_std,mag_max,movement_density,burst_count,EDA_mean,EDA_std,EDA_trend,TEMP_mean,TEMP_std,TEMP_slope,HR_mean,HR_std,HR_range,HR_trend
S050,6954.0,6983.984375,W,-0.02868229166666659,10.516801066383957,-38.79,36.96,75.75,0.495,75.76215925222742,796.875,848.2259114583334,2.2219604609287167,3.1409012109053456,2.825525393621512,63.73014950152762,0.7333731516809329,67.63135367564367,0.09166666666666666,49,0.066549075,0.001436927962486289,-3.5499944525809633e-07,34.67866666666666,0.026042699979499994,-3.840278819520167e-05,67.104,0.14216422428538825,0.46999999999999886,0.00019777783142844633
S050,6984.0,7013.984375,W,-0.04650520833333339,11.297415459638598,-44.27,66.64,110.91,-0.01,7.040888455518632,890.625,895.0520833333334,3.913010261365993,4.120396737067116,3.405831237000823,63.57859379929399,0.8081061219771115,67.80117993073571,0.10416666666666667,50,0.06552427499999999,0.0017130298594522514,-1.7071664787235458e-06,34.614000000000004,0.024440403706430545,-3.84722326584827e-05,66.86499999999998,0.16754601358034985,0.5999999999999943,-6.840279633323267e-06
S050,7014.0,7043.984375,W,0.01194791666666668,26.41865321245175,-306.28,141.07,447.34999999999997,1.745,101.41155241465772,953.125,897.2574869791666,6.76514496629086,14.573167550556649,5.91297924634514,63.72588606249602,2.642991464819421,88.2269800004511,0.041666666666666664,13,0.06249257500000001,0.0018903794445494274,-8.620620828076395e-07,34.541666666666664,0.020829999733290326,-2.5868062572716394e-05,66.51100000000001,0.6119986383427112,1.8799999999999955,-0.0010792711261043628
S050,7044.0,7073.984375,W,-0.0851614583333337,41.55449695849935,-125.93,214.03,339.96000000000004,0.63,0.0,781.25,781.25,28.143036731899695,26.078838470534343,12.194580163878701,64.38703499985083,7.9506508493320425,188.2179587605816,0.06041666666666667,28,0.056365116666666666,0.006329635536089121,-2.069665926016146e-06,34.49633333333333,0.03400816895329043,-4.7395846190279125e-05,69.71266666666666,2.9041119507040745,9.600000000000009,0.005180904183187983
S050,7074.0,7103.984375,W,0.10293750000000006,38.12128607615777,-134.93,171.31,306.24,0.29,0.0,781.25,781.25,28.377222058736358,31.40726649819893,14.124498516171586,65.4769797176043,10.30132080821528,148.74810923168064,0.10416666666666667,39,0.18898840833333333,0.0485535792461098,5.7660334868797425e-05,34.43933333333334,0.02719477073916201,-3.208334203649786e-05,87.278,6.65299150758514,22.360000000000014,0.011995211587242725
S050,7104.0,7133.984375,W,-0.21623437500000026,26.09221668423654,-148.8,136.86,285.66,0.36,0.0,781.25,781.25,10.236919160025094,8.925264546343834,8.54783085504088,63.751252935474106,2.75466256079949,86.19164692706596,0.059375,24,0.208807,0.0021939657244360003,-1.3521670334654451e-06,34.38566666666666,0.014067298564005945,1.2673614549048684e-05,107.478,4.218106526235044,13.75,0.007482918696538276
S050,7134.0,7163.984375,W,0.9167083333333333,33.24422162976744,-148.11,187.11,335.22,1.505,0.0,781.25,781.25,25.74628207298283,13.802183175739506,8.145116056975322,63.855746523502866,2.1746384970423853,81.99390221229869,0.05,17,0.20876426666666667,0.004186897502394291,5.861870079717359e-06,34.279666666666664,0.05237577896530291,-1.468750398424043e-05,111.28133333333332,1.4385750665927113,4.489999999999995,-0.002569167363597919
S050,7164.0,7193.984375,W,-0.7659635416666668,17.419102149553733,-158.61,112.46,271.07,0.32,46.96984761830145,781.25,789.0625,1.5671749507916752,1.0354978799471295,0.8126602406089931,64.028669362427,0.4297766982255274,67.00746227100382,0.06354166666666666,37,0.19092545,0.006585016415886905,-5.350770114683731e-06,34.16866666666667,0.05116856673996484,3.4513898251382875e-05,105.211,1.5230722241574761,4.6200000000000045,-0.0025739937537960496
S050,7194.0,7223.984375,W,0.14833854166666668,28.76911852903166,-135.55,129.99,265.54,0.6,0.0,1015.625,1015.625,25.125922259711018,26.184831287215324,12.10726366002382,65.69483286162429,9.275717507732208,124.58330546265017,0.109375,39,0.182748325,0.010812246881170216,3.0443217893668e-06,34.258,0.03081125335544391,5.194445853528115e-05,104.57966666666667,0.7417658360665822,2.0700000000000074,0.001231910056399212
S050,7224.0,7253.984375,W,-0.15218229166666664,15.469025892425153,-73.01,98.44,171.45,0.82,0.0,1015.625,1015.625,14.80671637556379,14.158207646097015,8.583559614735732,64.81905351044662,6.442428528372765,143.78456106272327,0.05520833333333333,20,0.18204374999999998,0.011065260159051843,9.337608001738281e-06,34.28,0.015275252316518753,-8.125002204048585e-06,103.92833333333334,1.0539958359605712,3.299999999999997,-0.0017958685427160773
S050,7254.0,7283.984375,W,0.015343749999999894,27.599454785650554,-225.22,142.2,367.41999999999996,0.1,5.52417581969208,1046.875,1045.8658854166667,23.817517698231182,24.28635320586297,15.190728930591458,65.11888657708863,7.357067642315042,100.7869039111729,0.09479166666666666,46,0.15829155833333336,0.020380467424634726,-2.0473054381796438e-05,34.29633333333334,0.026768555350551535,4.121528895813985e-05,99.89033333333333,1.2646408800744795,3.6199999999999903,-0.0022112853220717546
S050,7284.0,7313.984375,W,0.31213020833333344,25.976901602548033,-178.36,101.71,280.07,0.095,155.9972719771799,1046.875,947.1516927083334,15.815205494282674,5.057489697461633,4.287091007379661,64.8260620086554,1.8152757687554948,84.53401682163222,0.051041666666666666,25,0.1584947,0.014548438780845179,5.042477930359679e-06,34.31166666666666,0.013186693629901486,-1.2395836695919096e-05,98.35300000000001,0.29338427587949084,0.960000000000008,-0.00010038197167479743
S050,7314.0,7343.984375,W,-0.3338437499999999,23.66251150106611,-96.72,120.39,217.11,-0.325,53.43849582748106,703.125,660.05859375,7.222638743331046,2.303227468322079,1.8822980077369669,64.718285803996,1.135021699773393,79.28429857165919,0.04895833333333333,24,0.160480275,0.002567132203330207,1.9701496229789547e-06,34.279333333333334,0.01913693345920967,-2.6666673900464358e-05,93.45633333333335,3.721688222060282,12.719999999999999,-0.006654064305030464
S050,7344.0,7373.984375,W,0.06844791666666553,107.01824644846103,-572.46,692.85,1265.31,0.09,0.0,593.75,593.75,7.384664101290517,5.658002625184723,2.4310455855225936,64.77792074770225,1.4005743837460498,80.90735442467513,0.08125,37,0.16736565833333336,0.008626037848181743,7.881177268114494e-06,34.190000000000005,0.0635085296108584,-0.00010173613870880418,75.05799999999999,5.675359254414355,19.47,-0.010220905550375853
S050,7374.0,7403.984375,W,-0.3080885416666667,28.640915463474805,-327.89,150.62,478.51,0.55,0.0,593.75,593.75,12.375620381124671,13.375379626946314,4.386650657740545,64.60524369995348,2.8028978699948888,96.78842906050289,0.042708333333333334,22,0.17721869166666665,0.007437399676405538,1.0435123707444578e-05,34.041666666666664,0.033673266679799904,6.631946243474477e-06,68.488,4.273376806851148,13.189999999999998,0.007079029698087479
S050,7404.0,7433.984375,W,0.24388541666666683,51.09833892651864,-340.36,176.11,516.47,1.4,0.0,593.75,593.75,14.897051195844002,13.254767060434855,6.0142448813675315,63.907381549282114,4.964847280075801,121.64703037887936,0.03958333333333333,16,0.19446965000000002,0.004948509404608624,5.619256298626384e-06,33.95033333333333,0.09843723324478837,-0.00015406254179213874,94.08333333333333,9.558267392972201,32.60000000000001,0.017211463002241488
S050,7434.0,7463.984375,W,0.11856249999999982,62.67794706802992,-505.25,223.07,728.3199999999999,0.97,0.0,593.75,593.75,14.321005137595673,9.578551286507992,10.602899758553344,64.43933201598072,5.245294494516052,114.26723064816089,0.07916666666666666,29,0.19393576666666668,0.0032293474850020234,-1.5659674386847441e-06,33.745666666666665,0.052642399472499456,5.2048625230204036e-05,126.17533333333334,7.888635172758903,26.89999999999999,0.014214934411603302
S050,7464.0,7493.984375,W,-0.04629166666666708,67.702916284572,-515.74,329.12,844.86,0.81,0.0,593.75,593.75,16.560226652157674,19.129264202131,8.104258782681281,64.83750380811539,5.746119699352689,125.21182052825525,0.07395833333333333,35,0.194405775,0.006299800780530682,3.994046439357215e-06,33.81533333333333,0.07251360025693286,8.256946684284523e-05,149.84866666666667,6.137483052703466,18.400000000000006,0.010975002977160099
S050,7494.0,7523.984375,W,-0.10832812499999973,48.74414020515954,-187.61,411.89,599.5,0.085,123.35952892995813,859.375,772.0052083333334,14.27295285355214,8.212587729955901,7.544380770255252,64.82047285566318,4.498500539242636,118.97058459972364,0.04895833333333333,22,0.197789925,0.00405600052630359,-3.933707013266869e-06,33.83933333333334,0.015902480589168325,-6.11111276885782e-06,162.00633333333334,1.524336977909485,6.52000000000001,0.002548715969161232
S050,7524.0,7553.984375,W,-0.07492187499999994,44.275815489785884,-502.26,171.86,674.12,0.51,0.0,859.375,859.375,3.3818819688217485,1.6130405935986925,2.307454847502739,64.48023373434869,1.0002495840681034,71.37226352022192,0.07291666666666667,36,0.1997438,0.0014992427788720498,1.9949328328268226e-06,33.84333333333334,0.019550504398152754,1.0555558418933537e-05,165.74266666666668,1.484295418334534,4.200000000000017,-0.002280070062953033
S050,7554.0,7583.984375,W,0.08739062499999997,23.737075376084395,-110.81,150.49,261.3,-0.065,87.99601699745149,859.375,899.169921875,4.308155520992198,1.9725976510823378,1.6926310879810755,64.43148324381453,1.1367938842994667,83.43860018001261,0.035416666666666666,15,0.19624173333333333,0.0032507340266810865,3.2352929783238384e-06,33.824666666666666,0.0108730042868659,-7.708335424352644e-06,159.69166666666666,4.152459579039336,14.769999999999982,-0.0068741338091725755
S050,7584.0,7613.984375,W,0.1747031250000002,38.54065506350878,-324.38,193.31,517.69,1.41,0.0,1093.75,1093.75,1.3990075847622205,0.7231177674179743,0.5843657159096138,64.51841203802114,0.7320972786872159,74.30343195303969,0.09583333333333334,58,0.20323465000000004,0.0015482798608455817,1.9064887984181917e-06,33.77066666666666,0.02502443250549889,-3.243056435291057e-05,133.3716666666667,8.393588459188491,29.75999999999999,-0.01510698326469815
S050,7614.0,7643.984375,W,-0.19017708333333333,13.531345837608868,-51.73,58.93,110.66,0.405,0.0,1093.75,1093.75,0.8772732128194475,0.4245082428691919,0.6133603651198861,64.4662766170299,0.5012608800967479,66.37770710110436,0.22083333333333333,111,0.20613825,0.0012439925190691418,1.153678698372036e-06,33.71666666666666,0.020869967789997553,-1.750000474717998e-05,101.86933333333333,8.952646511258866,28.810000000000002,-0.016099379367236155
S050,7644.0,7673.984375,W,0.13011458333333328,17.33988858778714,-136.57,86.09,222.66,0.745,102.62184281267572,1093.75,1022.3714192708334,1.1952048108715743,0.8219792920732385,0.8782652369238401,64.51239589746368,0.8470196193592152,70.00714249274856,0.04583333333333333,19,0.20827325000000002,0.0011761893076796773,1.1614625546502142e-06,33.671,0.016401219466857533,-5.798612684086489e-06,79.11833333333334,5.200403883887822,17.08,-0.009371495597736434
S050,7674.0,7703.984375,N2,3.3271562500000007,79.61373982938761,-405.85,386.33,792.1800000000001,0.495,73.20232566886533,781.25,813.0533854166666,12.652895474510522,10.102830184377792,8.63312419309101,64.67781723845556,3.678167424448535,111.52578177264664,0.04479166666666667,13,0.2069602083333333,0.004381113263954403,-3.2978235942446725e-06,33.61233333333333,0.06586265169949376,-8.663196794486898e-05,67.04733333333333,1.1691932641308227,4.539999999999992,-0.0012921531282967442
S050,7704.0,7733.984375,N2,-3.586510416666668,144.01306644895504,-606.51,698.6,1305.1100000000001,-2.98,0.0,781.25,781.25,15.283200994519731,9.460402616428675,8.804523515307187,64.75344763190803,5.97070792411401,105.02380682492898,0.06875,21,0.17732564999999997,0.03737761500676798,-5.60176054735258e-05,33.486666666666665,0.08836791775802386,0.00010784725147766027,69.56233333333333,1.2825253300509205,5.0,0.0020353824965772824
S050,7734.0,7763.984375,W,0.14117708333333337,19.86685914432143,-61.66,128.42,190.07999999999998,1.165,124.45061115376907,1062.5,987.353515625,0.5004674464243959,0.3745135734077827,0.4875790089109206,64.20482622472653,0.4816182298614686,65.39877674696982,0.06666666666666667,37,0.132297275,0.0035660092749984535,3.993396265569731e-06,33.33766666666667,0.02752978185327403,-4.246528929722454e-05,72.68033333333332,0.9374486059986902,3.0,-0.001602743490327551
S050,7764.0,7793.984375,N2,0.14990624999999988,48.431367841853046,-245.64,284.93,530.5699999999999,1.605,76.72101649579112,1062.5,1030.9488932291667,16.23524968235056,10.688100007523945,7.010742934458199,64.30678549381898,3.1055806411391305,98.05100713404222,0.04375,14,0.13568125,0.004500496948949084,5.9952373033955425e-06,33.33166666666666,0.04676774767104013,1.5451393080346066e-05,69.574,1.552152483918167,5.680000000000007,-0.0023827784241477945
S050,7794.0,7823.984375,N2,-0.07634374999999997,12.104747517613463,-48.22,87.16,135.38,0.395,70.93272575411599,890.625,913.6962890625,1.0422310970807878,0.7907642883452832,0.7337290303174296,64.34301749589314,0.7188355327812305,70.74602462329597,0.011458333333333333,9,0.14287697500000002,0.0016201139387015315,2.445193588648429e-06,33.332,0.010770329614269108,4.444445650078256e-06,65.411,0.8363147334187856,3.509999999999998,0.0011753822632872893
S050,7824.0,7853.984375,N2,-0.0958385416666667,7.779466711650691,-23.47,18.31,41.78,0.635,0.0,1156.25,1156.25,0.28840249351191277,0.49594602185845005,0.03225804701500421,64.05879705342365,0.06996476457999715,65.06150935845248,0.07291666666666667,38,0.14675222500000001,0.0012129637564144322,1.4169398374945354e-06,33.35000000000001,0.015491933384827503,-8.750002373590163e-06,76.75933333333336,5.858533339402353,19.700000000000003,0.010521183409609215
S050,7854.0,7883.984375,N2,0.03076041666666667,7.256396520548829,-18.59,16.71,35.3,0.56,149.67247916123344,1156.25,1062.20703125,0.0910728874766433,0.44492581895749767,0.06441510347391795,64.06630907763156,0.07011540047858328,65.06150935845248,0.005208333333333333,5,0.14971987500000003,0.0013989953035571595,1.7116143965967813e-06,33.35533333333334,0.015860503004491364,-1.0347225029085429e-05,92.53733333333334,1.8946871920070487,6.3300000000000125,0.0019930560962066247
S050,7884.0,7913.984375,N2,0.054848958333333336,8.283980913114966,-20.53,16.59,37.120000000000005,1.245,142.8126332221881,1015.625,915.380859375,0.1682735042192389,0.33538431521001233,0.045595976308831845,64.06828019426165,0.05822041092251444,65.06150935845248,0.0020833333333333333,2,0.15222850000000002,0.001184876913438692,1.1653544827893023e-06,33.36466666666667,0.016275407487643175,1.8750005086269551e-06,80.23600000000002,6.046432887799771,20.299999999999997,-0.010901947401786948
S050,7914.0,7943.984375,N2,-1.708067708333334,74.20260466049467,-543.46,421.67,965.1300000000001,0.585,184.3364565733023,718.75,841.4957682291666,11.161399517654958,8.467449354304302,6.320106459524414,64.70007250584175,4.980649329035304,131.70421405558744,0.04895833333333333,28,0.15327460833333334,0.004308359949555116,-5.91090655135264e-07,33.38433333333333,0.03179972047396414,2.8437507714167917e-05,64.69033333333333,1.898191215048918,6.710000000000001,-0.002250660332752912
S050,7944.0,7973.984375,N2,1.6889479166666668,42.46946155324184,-284.67,407.74,692.4100000000001,1.1749999999999998,143.1410973023169,1093.75,983.4309895833334,0.519209970104153,0.4105329784425228,0.3279099824604646,64.36763221005721,0.29334053727193116,65.83312236253116,0.12395833333333334,67,0.160907275,0.002034168798151963,3.120492382946069e-06,33.434,0.022744962812310615,1.7777782600311666e-05,68.432,0.8170614012014839,3.049999999999997,0.0010188891652802622
S050,7974.0,8003.984375,N2,-0.05652083333333336,9.091524886970245,-21.44,14.72,36.160000000000004,1.415,167.15705392334812,953.125,974.6337890625,0.06441510347391793,0.2825663638864329,0.0,64.32404616164817,0.020462831933268272,64.59102104782058,0.09166666666666666,44,0.16464352500000004,0.0012148412650939192,1.4269476527093218e-06,33.47866666666667,0.01667999467092946,2.319445073634255e-05,67.921,0.9707981252557099,3.5200000000000102,-0.0016304518311772546
S050,8004.0,8033.984375,N2,0.09349479166666663,7.545562901810653,-19.48,12.85,32.33,1.625,80.85211753525691,859.375,862.6708984375,0.09636964965693294,0.2617030727062426,0.06441510347391795,64.32895273824387,0.06774659246387803,65.28399497579785,0.013541666666666667,12,0.16713079999999997,0.0011329590283854028,1.2854482653668227e-06,33.50033333333333,0.008749603165604322,1.2152781074427718e-06,62.49366666666667,0.7338277878509529,2.799999999999997,-0.000882048850382176
S050,8034.0,8063.984375,N2,-0.09593229166666664,7.865399701487877,-22.98,15.3,38.28,1.11,98.40012064358224,1171.875,1093.8395182291667,0.22838645595544604,0.13928372696486202,0.05581428468591172,64.33828736347485,0.08157288112304033,65.28399497579785,0.058333333333333334,53,0.16926579999999997,0.000977447676348973,1.0730601869195423e-06,33.519999999999996,0.020165977949671978,2.1597228080844796e-05,62.54533333333334,0.27187905807954793,0.740000000000002,0.0004747917954621839
S050,8064.0,8093.984375,N2,-7.812499999997336e-05,6.725205351894207,-20.71,14.67,35.38,1.1549999999999998,118.32805312827652,875.0,900.8951822916666,0.18742764807756854,0.15612494995995996,0.03225804701500421,64.33138966892786,0.059609265772449335,65.28399497579785,0.0375,34,0.17112325000000003,0.00094399840439484,6.277124098612245e-07,33.53433333333333,0.014761059883655068,3.36805646919939e-06,63.24699999999999,0.3728462596477712,0.9400000000000048,0.0006023265522804224
S050,8094.0,8123.984375,N2,0.01386979166666662,7.504258400354814,-18.48,12.94,31.42,1.2650000000000001,124.45805369242382,1031.25,964.453125,0.23632521950693283,0.10642856726723118,0.0,64.33608083286877,0.06418514815941088,64.59102104782058,0.059375,52,0.1728526,0.0011305424759822191,1.2671006041397073e-06,33.555,0.019450792614527392,8.993057995078751e-06,63.62733333333333,0.03802922852520503,0.12000000000000455,6.493057316910181e-05
S050,8124.0,8153.984375,N2,0.04857812499999998,6.589058418534079,-15.8,10.53,26.33,1.27,149.87280516987713,859.375,931.5999348958334,0.2870750936166354,0.139283726964862,0.04559597630883185,64.3468983686189,0.08899628437947779,65.28399497579785,0.09270833333333334,76,0.17445384999999997,0.001071548821799541,1.0441487207434605e-06,33.56066666666667,0.009977753031398737,-5.000001356337955e-06,63.38866666666667,0.3223634939353745,0.8299999999999983,-0.0005354168119077721
S050,8154.0,8183.984375,N2,0.007166666666666677,6.691892381000227,-18.93,11.36,30.29,1.39,164.57951456782277,843.75,890.1529947916666,0.28256636388643286,0.09090593428863095,0.07198059875565237,64.34861468790746,0.10486219793892852,65.55150646628954,0.09166666666666666,79,0.17593767500000002,0.0009713076852238928,6.702456245240931e-07,33.56,0.011254628677423884,5.069445819620106e-06,63.25766666666667,0.03852993064561032,0.14999999999999858,9.756947091186526e-06
S050,8184.0,8213.984375,N2,-0.011661458333333341,6.475526016276428,-17.0,10.49,27.490000000000002,1.61,125.55134060887202,1093.75,990.4541015625,0.194978186101819,0.11987768650679834,0.045595976308831845,64.33283803483656,0.06855934283152613,65.28399497579785,0.041666666666666664,36,0.17756027500000002,0.0009684878674382072,7.970112839114838e-07,33.568000000000005,0.013012814197297457,-4.930556893055483e-06,63.559000000000005,0.34118763166328303,1.1700000000000017,0.0005709376548767508
S050,8214.0,8243.984375,N2,0.007661458333333338,6.2928976913771235,-16.61,11.45,28.06,1.1949999999999998,111.24797233419606,890.625,851.3671875,0.21578094200034334,0.09636964965693298,0.04559597630883185,64.33518102602628,0.07290872214630789,65.28399497579785,0.051041666666666666,43,0.178926675,0.0009944952837369339,6.268784252599924e-07,33.568000000000005,0.011944315244781145,3.4027787008411076e-06,64.39666666666666,0.07798860315599036,0.2600000000000051,-0.00011020836322927035
S050,8244.0,8273.984375,N2,-0.06228125,7.274354940192184,-18.97,11.53,30.5,1.525,129.74965777563338,953.125,932.5927734375,0.20684625513624577,0.11987768650679835,0.07880950133074056,64.33827079611822,0.09373348048481778,65.28399497579785,0.051041666666666666,46,0.18005822499999996,0.001043259399370552,6.702456245240974e-07,33.57266666666667,0.012364824660662155,1.2500003390839706e-06,64.059,0.36507853036481547,1.1900000000000048,-0.0005743404335775915
S050,8274.0,8303.984375,N2,0.09081249999999999,5.983361997921995,-15.61,10.39,26.0,1.24,41.05095204818641,984.375,988.671875,0.20684625513624577,0.14282613750835507,0.06441510347391795,64.33650431714648,0.08319004224379847,65.28399497579785,0.04895833333333333,43,0.1813926,0.0009839547703019676,7.661538536658661e-07,33.572,0.009451631252506695,3.4722231641235797e-07,63.44466666666666,0.2691187263809201,0.7899999999999991,0.00038611121585048046
S050,8304.0,8333.984375,N2,-0.06260416666666664,6.793963273989341,-18.56,11.01,29.57,1.375,111.42727160573851,828.125,922.6969401041666,0.21578094200034337,0.11557806855349138,0.07198059875565237,64.33835675913355,0.09022860479800104,65.28399497579785,0.05416666666666667,49,0.18269495000000002,0.0009526503017896877,6.582918452397526e-07,33.566,0.013063945294845006,8.61111344702586e-06,62.81866666666666,0.16431135755699347,0.6400000000000006,-0.0002163889475881465
S050,8334.0,8363.984375,N2,-0.017411458333333348,6.818310604348317,-15.83,10.27,26.1,1.5550000000000002,63.75538420950926,875.0,876.2613932291666,0.26339134382131846,0.139283726964862,0.045595976308831845,64.3426562554634,0.08343255527570011,65.28399497579785,0.07708333333333334,69,0.183965275,0.0009542637996775328,7.503081462424442e-07,33.578,0.012220201853217483,3.6111120906885226e-06,62.37566666666667,0.28853287892755397,0.8800000000000026,-0.0004014931644675471
S050,8364.0,8393.984375,N2,0.011317708333333313,6.343241685964788,-16.05,11.2,27.25,1.2,103.35745253104199,828.125,867.8385416666666,0.24578919095210203,0.11987768650679834,0.045595976308831845,64.33962568794347,0.07947537560317665,65.28399497579785,0.06666666666666667,56,0.1850221,0.0010023137183536933,6.594038247080709e-07,33.57333333333334,0.012736648783029842,8.819446836873326e-06,63.220666666666666,0.17435468320511374,0.7100000000000009,0.00027798618651969084
S050,8394.0,8423.984375,N2,0.0540364583333333,7.669743069952699,-18.91,12.61,31.52,1.36,127.0665048181918,1000.0,989.7298177083334,0.26672362672915867,0.13188915142607027,0.03225804701500421,64.34213627501106,0.07852537536134761,65.28399497579785,0.078125,69,0.186142975,0.0009755221291057453,3.9447471638311646e-07,33.58200000000001,0.013266499161422673,1.111111412519511e-05,63.49266666666667,0.10006442369238423,0.3300000000000054,0.00016743060097401338
S050,8424.0,8453.984375,N2,-0.002093750000000035,7.4242220125216445,-17.3,12.91,30.21,1.6549999999999998,54.998223536152224,968.75,955.322265625,0.30948370705185035,0.09636964965693297,0.06441510347391795,64.35302405564109,0.10588465776664524,65.55150646628954,0.11041666666666666,86,0.18738127499999996,0.000890003117620947,3.711231475485981e-07,33.58400000000001,0.013808210118139472,2.9861119211462047e-06,64.13366666666666,0.39113921931824885,1.04999999999999,0.000610868221264168
S050,8454.0,8483.984375,N2,0.03910937500000003,7.786432945121305,-20.25,13.29,33.54,1.57,71.92252564313767,984.375,961.3037109375,0.2914805954090255,0.12401959270615269,0.032258047015004204,64.34658042559218,0.08468096676964154,65.28399497579785,0.09479166666666666,78,0.18872632500000003,0.0009231869363108458,6.341062918040092e-07,33.582666666666675,0.012092238098145523,4.791667966489454e-06,64.95933333333333,0.20011552219211362,0.6899999999999977,0.00031041675087259955
S050,8484.0,8513.984375,N2,-0.11471874999999998,7.8498666671308355,-19.92,13.75,33.67,1.2149999999999999,139.14150870088548,953.125,892.7327473958334,0.3342289400620479,0.07880950133074056,0.06441510347391795,64.35856316707181,0.10865267306658441,65.28399497579785,0.13229166666666667,101,0.18984720000000002,0.0009296448031372008,5.604376520284441e-07,33.59333333333334,0.01719172927763649,2.118056130114969e-05,64.74433333333333,0.19386736588594775,0.6099999999999994,-0.0002681597949652233
S050,8514.0,8543.984375,N2,-0.023234375000000015,8.425771972994623,-22.48,16.31,38.79,1.435,72.39332857990445,890.625,919.189453125,0.34977516339865466,0.07880950133074056,0.05581428468591172,64.36151796466308,0.10803680401543901,65.28399497579785,0.14583333333333334,111,0.1910428,0.0010050386360732542,5.904610976728191e-07,33.60000000000001,0.013416407864997659,-2.152778361757458e-06,64.376,0.05535341001239437,0.18000000000000682,7.986113277483339e-05
S050,8544.0,8573.984375,N2,0.04644270833333337,8.112962724467103,-20.81,14.51,35.32,1.295,46.79314141512722,1031.25,1021.2890625,0.36699204313203065,0.09636964965693297,0.07880950133074056,64.36946114297601,0.12320915647148695,65.28399497579785,0.16666666666666666,121,0.1922277333333333,0.001137372327877821,5.9073496927489e-07,33.60133333333334,0.013349989596332728,6.041668305572759e-06,63.914,0.17691052352342734,0.6699999999999946,-0.00030416674917717735
S050,8574.0,8603.984375,N2,0.013598958333333303,8.385070879967698,-21.05,14.48,35.53,1.81,141.60992266650678,843.75,871.3134765625,0.35501736068661327,0.06441510347391793,0.032258047015004204,64.360841774128,0.10085199880401877,65.28399497579785,0.14895833333333333,103,0.1932632083333333,0.0010836550950051218,6.010450849189148e-07,33.60866666666667,0.008844332774280449,2.2222228250378575e-06,63.163333333333334,0.18755147441583989,0.6899999999999977,-0.00020451394436684611
S050,8604.0,8633.984375,N2,0.014437500000000037,7.741968781976181,-19.23,13.19,32.42,1.56,73.34229089475409,968.75,938.6881510416666,0.3754496725224597,0.1015291077584267,0.045595976308831845,64.36802433071124,0.11248152871338647,65.55150646628954,0.17083333333333334,125,0.19425597499999997,0.0009470716574657939,3.116322459939914e-07,33.629333333333335,0.013148721948877168,8.402780057177286e-06,63.58899999999999,0.25892534316542526,0.8800000000000026,0.00040607649904418895
S050,8634.0,8663.984375,N2,-0.02750000000000002,8.599412619233558,-20.48,14.71,35.19,1.66,29.97472475399384,953.125,964.9088541666666,0.43119338396478213,0.08507936450096985,0.05581428468591172,64.38983616727677,0.12925434071277697,65.55150646628954,0.24895833333333334,153,0.19520606666666665,0.0011480145014569983,6.927632087573831e-07,33.64266666666666,0.014126413400276424,8.750002373588608e-06,64.59,0.12881511298498108,0.4100000000000108,-3.381945361855701e-05
S050,8664.0,8693.984375,N2,0.12471354166666666,9.011745109463627,-24.3,17.55,41.85,1.385,140.52679871644978,1031.25,928.7353515625,0.44330964065763345,0.07198059875565237,0.05581428468591173,64.39569441225517,0.13212808224754077,65.55150646628954,0.2708333333333333,167,0.1963269416666667,0.0009853559787866303,4.2227984545351834e-07,33.63966666666666,0.011685698761970346,-9.68750262790142e-06,64.01366666666667,0.32635852813874694,0.8500000000000014,-0.0005670487649329343
S050,8694.0,8723.984375,N2,-0.11814062500000003,8.45993100044604,-27.4,14.61,42.01,1.11,51.53139505545221,1000.0,998.388671875,0.4962872134801469,0.09636964965693297,0.032258047015004204,64.43600101877661,0.13957450180833125,65.55150646628954,0.42291666666666666,192,0.19740537500000002,0.0008500924269601545,5.067403718371254e-07,33.65099999999999,0.010440306508908473,8.22916889896996e-06,62.950333333333326,0.23781622222959345,0.7800000000000011,-0.0003541320405089072
S050,8724.0,8753.984375,N2,-0.01009895833333332,7.443338817400691,-18.39,13.37,31.759999999999998,1.4249999999999998,117.51135010381392,890.625,892.5537109375,0.48619840486049404,0.07198059875565238,0.0,64.42379447987243,0.13195888940952816,64.6297145282261,0.38333333333333336,197,0.19815291666666665,0.0009502082191405292,4.594306801841007e-07,33.661666666666655,0.010027739304328154,2.8125007629401365e-06,63.4,0.3669423206263715,1.0499999999999972,0.0005789584903858753
S050,8754.0,8783.984375,N2,0.09061458333333337,10.164539680376775,-24.57,17.23,41.8,1.895,136.24942090167093,687.5,779.9886067708334,0.49228421668788036,0.045595976308831845,0.0,64.43159215129826,0.13360207868816473,64.59102104782058,0.4125,195,0.199039275,0.0008917358630082027,4.44150511108535e-07,33.67733333333333,0.015691469727921226,1.2708336780691734e-05,64.39000000000001,0.39947465501580953,1.2199999999999989,0.0006654862916358213
S050,8784.0,8813.984375,N2,-0.13605208333333335,9.434621494648704,-25.61,14.45,40.06,1.665,78.70976457965598,1093.75,1039.3717447916667,0.49834687655788523,0.0,0.03225804701500421,64.44523855502781,0.13986035497180285,65.55150646628954,0.459375,204,0.20016025,0.0009095701388568093,2.9689851803887504e-07,33.698,0.018690461025168737,1.6388893334660877e-05,64.14466666666667,0.3481544995480533,1.019999999999996,-0.0006047223862636679
S050,8814.0,8843.984375,N2,-0.004442708333333408,9.492069414661872,-23.61,17.64,41.25,1.81,87.25316183973402,1031.25,996.0286458333334,0.4997872811395753,0.04559597630883185,0.0,64.4593082314485,0.13570429783474605,64.6297145282261,0.0010416666666666667,1,0.20100357500000005,0.0008905151286614985,5.740594005152472e-07,33.71399999999999,0.01280624847486441,4.30555672351166e-06,63.63700000000001,0.11894396439780723,0.38000000000000256,-0.0001960764420780296
S050,8844.0,8873.984375,N2,0.0606979166666667,10.687529938183985,-27.9,20.36,48.26,2.12,42.73042107669995,1015.625,1016.6097005208334,0.49834687655788523,0.0,0.0,64.46629792198105,0.13530422899956562,64.59102104782058,0.0,0,0.20219917500000004,0.0011337131446600619,6.963771420293923e-07,33.729000000000006,0.015989579940281662,1.5451393080347797e-05,63.034,0.27245305406008347,0.8299999999999983,-4.368056740466767e-05
S050,8874.0,8903.984375,N2,0.1373541666666667,9.32581643988339,-23.06,14.41,37.47,2.175,105.39091275616295,984.375,928.61328125,0.4885805332798269,0.032258047015004204,0.03225804701500421,64.485156492776,0.13696265497438037,65.55150646628954,0.0010416666666666667,1,0.20296777500000002,0.0010300683590786608,3.783510140926161e-07,33.74733333333334,0.012364824660662872,1.1944447684585114e-05,63.20733333333333,0.12614629954496812,0.3500000000000014,-0.00017833338170935849
S050,8904.0,8933.984375,N2,0.007244791666666665,10.669510579336666,-25.93,18.82,44.75,1.9049999999999998,13.681170013536256,1015.625,1014.0706380208334,0.4724977494802371,0.0,0.045595976308831845,64.50167156104519,0.13689715503912092,65.55150646628954,0.0020833333333333333,2,0.20389649999999995,0.0009257139406965879,6.399441840126388e-07,33.75933333333333,0.012364824660662284,9.305558079850527e-06,64.06533333333333,0.3667399926681321,1.2999999999999972,0.0005614584856386931
S050,8934.0,8963.984375,N2,-0.10734374999999999,9.826653493526468,-24.86,18.11,42.97,1.4649999999999999,105.50491278179301,812.5,900.390625,0.45111623709970805,0.0,0.0,64.51381149372945,0.12248082113317192,64.59102104782058,0.0,0,0.20481454999999998,0.0008462252344972967,3.1246623059522416e-07,33.778,0.013266499161420532,7.638890961070123e-06,64.55266666666667,0.08414009481546564,0.2600000000000051,-1.6805560114354667e-05
S050,8964.0,8993.984375,N2,0.06459374999999998,9.72660497904044,-23.62,17.74,41.36,2.03,145.5050704435979,812.5,826.1149088541666,0.46266419757986693,0.03225804701500421,0.0,64.50671682672392,0.12560216368563212,64.59102104782058,0.0,0,0.20559382499999998,0.0008101052057449087,4.534096282035665e-07,33.790000000000006,0.01154700538379227,5.000001356337091e-06,64.86733333333333,0.17540302797335586,0.5,0.0002900695231308375
S050,8994.0,9023.984375,N3,-0.033708333333333264,9.521747432321998,-23.6,16.17,39.77,1.815,54.54854052877874,859.375,841.2190755208334,0.44755799593150186,0.032258047015004204,0.0,64.51576692869726,0.12155630526083781,64.59102104782058,0.0,0,0.20646917500000003,0.0009305636971078255,6.163146203110346e-07,33.80533333333334,0.01687865186822927,3.541667627404472e-06,65.434,0.4012447299757749,1.0,0.0006961112999433846
S050,9024.0,9053.984375,N2,-0.06982812500000005,10.584380444671398,-25.31,18.28,43.59,1.85,52.005964670681045,828.125,871.09375,0.4030913530316532,0.032258047015004204,0.03225804701500421,64.53656475590334,0.11427820045132574,65.55150646628954,0.0010416666666666667,1,0.20757937500000004,0.0011970764321358046,6.324383226015376e-07,33.826333333333324,0.009480975102217732,3.6458343223288335e-06,66.03466666666667,0.10716757386863295,0.3500000000000085,0.00014965281837370228
S050,9054.0,9083.984375,N2,-0.03190104166666662,10.637762148189687,-25.14,18.62,43.760000000000005,1.95,0.0,828.125,828.125,0.40980681212479725,0.04564354645876384,0.0,64.53305935608908,0.11124362222913545,64.59102104782058,0.0,0,0.20838000000000007,0.001010466426953416,5.648855699016851e-07,33.82966666666666,0.008749603165604676,-3.2986120059165e-06,66.44233333333334,0.1575581021577611,0.5499999999999972,7.427085348059145e-05
S050,9084.0,9113.984375,N2,0.12204687499999992,10.54843591426644,-26.7,18.36,45.06,2.01,36.75280045055736,984.375,983.6507161458334,0.39684082311285573,0.04559597630883185,0.05581428468591172,64.5408042253775,0.12164815999213738,65.55150646628954,0.003125,3,0.20912725,0.0009678405020973273,3.6973317321321004e-07,33.848000000000006,0.01777638883463012,1.270833678069023e-05,66.34099999999998,0.094246131662437,0.3299999999999983,-0.00015600698676404857
S050,9114.0,9143.984375,N2,-0.13116666666666665,10.939603449800586,-28.72,18.69,47.41,1.81,29.22396594595698,1015.625,1012.0849609375,0.3591016472470651,0.0,0.0,64.54972949142021,0.09749829646538263,64.59102104782058,0.0,0,0.21013069999999998,0.0009047967782878128,4.520196538681802e-07,33.861000000000004,0.01699999999999783,1.3854170424849122e-05,65.88166666666667,0.13261682480825063,0.5,3.2291675426376398e-06
S050,9144.0,9173.984375,N2,-0.009187500000000097,11.727993846022592,-27.41,23.43,50.84,1.795,118.47444654202495,828.125,811.03515625,0.3799671038392666,0.03225804701500421,0.03225804701500421,64.54448794777413,0.10563566147564592,65.28399497579785,0.0010416666666666667,1,0.21088862499999994,0.0010067945591703427,3.027364102475084e-07,33.88399999999999,0.0162480768092714,6.9444463282457525e-06,66.385,0.26342298052118934,0.8299999999999983,0.0004741320730610014
S050,9174.0,9203.984375,N2,0.10620833333333342,11.338370023505608,-26.71,20.13,46.84,2.295,126.77880759693441,765.625,868.5139973958334,0.35398126274564307,0.032258047015004204,0.0,64.55111939079832,0.096100962036413,64.59102104782058,0.0,0,0.21181734999999996,0.0010147428381122004,2.974545077730343e-07,33.896666666666654,0.012995725793077733,8.333335593894494e-06,66.47333333333333,0.3073904502239592,0.8200000000000074,-0.0005336112558624265
S050,9204.0,9233.984375,N2,0.05641145833333335,11.29242327511912,-25.55,22.49,48.04,1.7349999999999999,15.911025370749242,1031.25,1031.1604817708333,0.32953401179628716,0.045595976308831845,0.0,64.55731721112717,0.08945856717083073,64.59102104782058,0.0,0,0.2125219,0.0009413389081515786,5.215183706375807e-07,33.917333333333325,0.015040685563571934,1.618055994481445e-05,65.78533333333333,0.3868740823001141,1.0999999999999943,-0.0006854862970611697
S050,9234.0,9263.984375,N2,-0.07764062499999999,12.270945545865633,-31.27,22.93,54.2,1.7650000000000001,5.693451502792347,1031.25,1030.17578125,0.30547663122114954,0.04564354645876384,0.0,64.56275544060104,0.08282461677521165,64.59102104782058,0.0,0,0.21353602500000005,0.0011068590354579918,1.7374679192349923e-07,33.93533333333333,0.014544949486182663,4.722223503208685e-06,65.47800000000001,0.2929323016216088,0.7999999999999972,0.0005002084690235635
S050,9264.0,9293.984375,N2,0.08430208333333326,12.796071326306066,-29.75,21.39,51.14,2.24,11.562266189914718,1031.25,1024.6012369791667,0.29292696461272083,0.03225804701500421,0.032258047015004204,64.56626084041528,0.08565096296849649,65.55150646628954,0.0010416666666666667,1,0.21420855000000003,0.0008299083066821212,1.3510550539971426e-07,33.95666666666666,0.011925695879997696,1.1944447684582054e-05,65.713,0.11849472562101596,0.3499999999999943,0.00015072920755458048
S050,9294.0,9323.984375,N2,-0.03671875000000004,11.564397860642455,-26.27,20.07,46.34,1.815,63.10040570807272,890.625,939.9169921875,0.2763853991962833,0.04559597630883184,0.0,64.5683471474259,0.07503321153675659,64.59102104782058,0.0,0,0.21512660000000003,0.0008389218914773822,4.775951816393147e-07,33.977000000000004,0.013453624047074186,1.156250313653094e-05,65.50233333333333,0.2611855449462854,0.6999999999999886,-0.000456354290460687
S050,9324.0,9353.984375,N2,-0.004885416666666694,12.055706722138027,-27.74,22.27,50.01,1.975,99.49399261774121,890.625,850.5126953125,0.3,0.045595976308831845,0.032258047015004204,64.56482255099887,0.0874487928139946,65.55150646628954,0.0010416666666666667,1,0.215948575,0.0010149112741392734,7.366863977556513e-08,33.98966666666667,0.013535960336164717,1.423611497289619e-06,65.26966666666667,0.07918262996951239,0.29999999999999716,8.309030031746562e-05
S050,9354.0,9383.984375,N2,0.06117187500000007,12.740390554896358,-30.22,23.82,54.04,2.175,128.68847648592256,859.375,872.1435546875,0.232399078305449,0.07198059875565237,0.0,64.57534503435481,0.06309009983828597,64.59102104782058,0.0,0,0.21665312499999997,0.0008523303991850841,3.4943954791654527e-07,33.999,0.011357816691600226,3.7847232488937273e-06,65.88233333333332,0.18693462909679218,0.5799999999999983,0.00028225702101156077
S050,9384.0,9413.984375,N2,-0.05817708333333336,12.99976021853768,-29.99,25.32,55.31,1.98,44.27694839430413,1000.0,976.0091145833334,0.2382571993782256,0.07198059875565237,0.03225804701500421,64.57549698119148,0.07203910142475703,65.55150646628954,0.0010416666666666667,1,0.21750712499999997,0.0010445693415829357,5.334721499219174e-07,34.02766666666666,0.01725945795466538,1.0104169407596792e-05,66.06066666666668,0.18200610490371533,0.6299999999999955,-0.0002027083883215016
S050,9414.0,9443.984375,N2,-0.07702604166666659,13.157750676856658,-33.21,24.26,57.47,1.875,40.55717544862334,953.125,973.8444010416666,0.22428271082497642,0.08507936450096987,0.0,64.57642791983432,0.060886077604130416,64.59102104782058,0.0,0,0.21839314999999998,0.0010457141949404742,4.898269557907336e-07,34.05533333333334,0.01707499796648775,1.4027781583057289e-05,64.99333333333334,0.2432739653605013,0.8999999999999915,-0.0003757639908213949
S050,9444.0,9473.984375,N2,0.158953125,13.610391476501919,-32.58,25.26,57.84,2.1100000000000003,52.43122894775366,1031.25,1012.939453125,0.22428271082497642,0.08507936450096985,0.0,64.57642791983432,0.060886077604130416,64.59102104782058,0.0,0,0.219215125,0.0009580775330707876,2.638171288566439e-07,34.07866666666667,0.014313940369057128,9.375002543133368e-06,64.52199999999999,0.14150147231271898,0.4300000000000068,-0.0001442361502376729
S050,9474.0,9503.984375,N2,-0.26259375,14.257574209344343,-33.19,25.01,58.2,1.605,122.07578085625028,921.875,871.3460286458334,0.22219509383022437,0.10642856726723117,0.0,64.57661395863715,0.0603155907360836,64.59102104782058,0.0,0,0.22018655000000004,0.0011479472320189644,7.161147775919003e-07,34.098000000000006,0.015143755588799967,1.7638893673744208e-05,64.87433333333334,0.20856147508322107,0.5999999999999943,0.0003712153784763944
S050,9504.0,9533.984375,N2,0.18610416666666665,12.86933965500235,-32.54,25.25,57.79,2.3200000000000003,78.86462062945155,1015.625,957.8938802083334,0.20453835214941965,0.07198059875565238,0.032258047015004204,64.58002208326275,0.06388316391756935,65.55150646628954,0.0010416666666666667,1,0.22089110000000006,0.001212258940985795,2.513073598381525e-07,34.12266666666667,0.014126413400278346,1.4236114972904604e-05,65.184,0.09765927161991964,0.29999999999999716,5.319445887436673e-05
S050,9534.0,9563.984375,N2,0.013145833333333282,13.395401383636575,-32.59,25.21,57.800000000000004,2.025,96.50016068657655,1015.625,973.5107421875,0.19741988090108856,0.139283726964862,0.0,64.57953140615791,0.05360374116452367,64.59102104782058,0.0,0,0.22169172500000003,0.0011728419967646981,6.518979632969744e-07,34.14099999999999,0.011647603473102413,8.576391215382862e-06,65.425,0.11026483271348685,0.37999999999999545,0.0001523264302100783
S050,9564.0,9593.984375,N2,-0.015505208333333369,12.816191824007806,-29.24,28.09,57.33,1.94,137.36554035279497,734.375,802.9459635416666,0.19982631347136331,0.09636964965693297,0.0,64.57949053747001,0.05425483841391239,64.59102104782058,0.0,0,0.222161425,0.0009305636971078349,1.1425589036889426e-07,34.155666666666654,0.009195409482754612,4.61805680828314e-06,65.88499999999999,0.10849731179465483,0.3999999999999915,0.00015531254213122463
S050,9594.0,9623.984375,N2,-0.036859375000000014,12.866712538279723,-29.73,22.84,52.57,1.72,67.07070423293982,1031.25,1025.341796875,0.1899835519196333,0.12401959270615269,0.0,64.58047664287291,0.05159049671397532,64.59102104782058,0.0,0,0.22309014999999996,0.0011415763345041746,4.942748736639724e-07,34.17566666666666,0.017829438827090087,1.3368059181875053e-05,65.49266666666666,0.1833745408234809,0.5699999999999932,-0.00026541673866556413
S050,9624.0,9653.984375,N2,-0.0033697916666666364,12.761661690910557,-29.92,25.18,55.1,1.9649999999999999,73.56240582556879,937.5,943.7662760416666,0.21137108216357317,0.11987768650679835,0.0,64.57795546797696,0.057380972349277255,64.59102104782058,0.0,0,0.22376267499999997,0.0010216259439613821,2.3379368321226058e-07,34.20166666666667,0.017716909687890744,1.0104169407597236e-05,65.50233333333333,0.09841013949566164,0.39000000000000057,0.00015906254314847652
S050,9654.0,9683.984375,N2,-0.020427083333333304,12.288996841047137,-27.39,22.37,49.760000000000005,2.005,77.80402645085579,906.25,911.9954427083334,0.16532992583014122,0.11110243021644485,0.0,64.58309459784546,0.04491286840326261,64.59102104782058,0.0,0,0.22445654999999995,0.0008462252344972904,3.575013990617924e-07,34.22533333333333,0.01667999467092844,1.027778056580328e-05,65.87133333333334,0.17572200266961874,0.46999999999999886,-0.0002459028444831907
S050,9684.0,9713.984375,N2,-0.0956197916666667,12.649654187929077,-33.99,27.37,61.36,1.87,10.740260712418896,953.125,954.6305338541666,0.17116012950028855,0.11987768650679835,0.0,64.58248046787902,0.04663635234936342,64.59102104782058,0.0,0,0.22509705,0.0009234954777907695,4.570235614755765e-07,34.254666666666665,0.014313940369058163,1.2152781074432529e-05,65.63866666666667,0.04971474183334187,0.18000000000000682,-3.5069453957644234e-05
S050,9714.0,9743.984375,N2,0.008213541666666687,14.08900490284238,-32.17,24.97,57.14,2.0199999999999996,0.0,953.125,953.125,0.13928372696486196,0.11557806855349138,0.0,64.58533295386194,0.03786694422401246,64.59102104782058,0.0,0,0.225854975,0.0009470716574657938,1.509512128231377e-07,34.279333333333334,0.0184270332814468,1.7500004747180153e-05,65.556,0.16493635136015378,0.46999999999999886,0.00024097228759013896
S050,9744.0,9773.984375,N2,0.050406250000000014,14.627525068398537,-32.3,28.11,60.41,2.045,86.88647419315988,953.125,929.8502604166666,0.13188915142607024,0.139283726964862,0.0,64.58575342150591,0.035893032374722966,64.59102104782058,0.0,0,0.226538175,0.0008905151286614986,6.696896347899425e-07,34.300666666666665,0.015260697523012864,1.527778192214111e-05,65.45333333333333,0.12918548250050746,0.5300000000000011,-1.659722672450684e-05
S050,9774.0,9803.984375,N2,0.044796874999999875,12.46528797636622,-28.37,27.7,56.07,2.02,53.892005967357555,1000.0,968.5628255208334,0.1529193630552463,0.08507936450096985,0.0,64.58434684845905,0.04153903313749994,64.59102104782058,0.0,0,0.22717867500000005,0.00089816026931445,4.973328172018293e-07,34.318333333333335,0.011571036638471909,1.3576392571719212e-05,65.82866666666666,0.21512373700320017,0.6099999999999994,-0.00034826398336154044
S050,9804.0,9833.984375,N3,-0.013619791666666626,14.162623089757242,-31.56,23.6,55.16,2.24,65.82010673493302,921.875,891.8863932291666,0.14282613750835507,0.1155780685534914,0.0,64.5850501349825,0.03882518686960383,64.59102104782058,0.0,0,0.227627025,0.000887438631328953,4.000346137246687e-07,34.34066666666668,0.015260697523012491,1.5069448532294955e-05,65.38566666666667,0.0739226322282671,0.35999999999999943,-9.850697116617274e-05
S050,9834.0,9863.984375,N2,0.05735416666666662,14.366879698473127,-33.29,25.43,58.72,2.065,68.76992408962614,828.125,883.7727864583334,0.11987768650679832,0.09090593428863095,0.0,64.586868023355,0.03259243871515036,64.59102104782058,0.0,0,0.22827820000000004,0.0009442398053460808,3.914167728452627e-07,34.36966666666667,0.01852625764211925,1.267361454904888e-05,64.90799999999999,0.10873208664725695,0.3299999999999983,0.00014125003831652442
S050,9864.0,9893.984375,N2,0.07308333333333333,14.226997940144958,-33.02,27.17,60.190000000000005,2.12,78.0773627957953,1062.5,1025.341796875,0.17116012950028855,0.14627537173085564,0.0,64.58231120491415,0.046505536837808656,64.59102104782058,0.0,0,0.22906814999999997,0.0011335623615399395,5.343061345231503e-07,34.385999999999996,0.017999999999999104,2.402778429573026e-05,65.187,0.07029224708316065,0.23000000000000398,9.621530387785211e-05
S050,9894.0,9923.984375,N2,-0.2057604166666667,15.057696638848846,-33.1,27.45,60.55,1.76,36.808242139990476,1000.0,985.7584635416666,0.13928372696486196,0.11987768650679835,0.0,64.58530875884279,0.03787072240365619,64.59102104782058,0.0,0,0.22982607499999996,0.0011867508455337204,-1.1397789550181055e-08,34.414666666666655,0.016069294390926393,2.076389452145755e-05,65.65633333333334,0.391905459121061,1.039999999999992,0.0006855210192928122
S050,9924.0,9953.984375,N2,0.057718749999999965,14.444704573391768,-32.29,28.51,60.8,1.995,160.67191867369627,1046.875,999.658203125,0.12401959270615269,0.1428261375083551,0.04564354645876384,64.58629613242314,0.055319330063020006,65.55150646628954,0.0010416666666666667,1,0.23026374999999993,0.0009244821185398848,3.174701382026169e-07,34.437999999999995,0.012220201853217484,5.1388902829028975e-06,65.87100000000001,0.18621403455880256,0.519999999999996,-0.000315173696607448
S050,9954.0,9983.984375,N2,-0.042239583333333316,14.916168809832945,-33.43,30.05,63.480000000000004,1.8450000000000002,158.60641420576542,703.125,822.1028645833334,0.09636964965693294,0.1428261375083551,0.03225804701500421,64.58899228316663,0.04073301335206654,65.55150646628954,0.0010416666666666667,1,0.23089357499999996,0.0010843929612345266,1.7485877139180722e-07,34.46333333333334,0.016599866130651196,2.2361117176951042e-05,66.01866666666666,0.15647648030579267,0.5,-1.8472227233135064e-05
S050,9984.0,10013.984375,N2,-0.06649999999999999,13.564759529137747,-31.13,24.7,55.83,2.14,0.0,703.125,703.125,0.09636964965693294,0.13188915142607024,0.0,64.58806436257987,0.02630390168358176,64.59102104782058,0.0,0,0.23136327499999998,0.0007982016658558066,3.0774031785490195e-07,34.484,0.011430952132988916,7.91666881420075e-06,66.25233333333334,0.15673083792143608,0.5799999999999983,0.00027371535202781885
S050,10014.0,10043.984375,N2,-4.166666666665838e-05,14.879664478685797,-33.48,24.66,58.14,2.34,108.18481014881206,937.5,865.3564453125,0.11557806855349137,0.1356408400888169,0.0,64.58690889204289,0.03148710244811419,64.59102104782058,0.0,0,0.23214255,0.0010612904397477602,5.237423295741987e-07,34.507999999999996,0.01661324772583595,8.958335763437158e-06,66.10166666666667,0.19524486050996553,0.6400000000000006,-0.00012399308919083208
S050,10044.0,10073.984375,N2,0.08139583333333332,15.904609913139941,-34.99,32.82,67.81,2.2199999999999998,52.05488763308549,1046.875,1005.5582682291666,0.09636964965693294,0.11987768650679835,0.0,64.58813694763734,0.026279901988851946,64.59102104782058,0.0,0,0.23266562500000004,0.0009931192951378016,-1.6957686891733643e-08,34.53833333333333,0.014161763857497551,9.61805816461991e-06,66.02833333333335,0.08161222675283042,0.28999999999999204,-0.00011864586551808324
S050,10074.0,10103.984375,N2,-0.03949479166666661,14.204387940915108,-33.02,24.82,57.84,1.9100000000000001,130.42987312790376,796.875,851.8310546875,0.09636964965693294,0.139283726964862,0.0,64.58801597254156,0.02631977811356439,64.59102104782058,0.0,0,0.23310330000000004,0.0011085564757828115,4.270001158311956e-07,34.554,0.015832456116050518,1.2500003390842593e-05,65.61599999999999,0.2457993761858103,0.7800000000000011,-0.00042437511511911867
S050,10104.0,10133.984375,N3,0.16677083333333328,14.070180239368506,-33.44,23.83,57.269999999999996,2.835,112.11457338291441,828.125,859.4401041666666,0.11987768650679835,0.1356408400888169,0.0,64.58662607316344,0.03264687889085386,64.59102104782058,0.0,0,0.23376515,0.0012808220709762952,8.506642932574621e-08,34.58200000000001,0.01222020185321694,1.1111114125197184e-06,66.20533333333334,0.7299805172438212,1.8700000000000045,0.001165139204953128
S050,10134.0,10163.984375,N2,-0.029932291666666725,16.282809638849155,-35.02,32.9,67.92,2.105,0.0,921.875,921.875,0.06441510347391793,0.16232629604869594,0.03225804701500421,64.59026110527977,0.0359909959019595,65.55150646628954,0.0010416666666666667,1,0.23405337500000006,0.000833402384430837,6.477280402908117e-08,34.607333333333344,0.016110727964792067,1.2638892317406425e-05,66.68900000000002,0.046572524088779085,0.20999999999999375,7.156251941257465e-05
S050,10164.0,10193.984375,N2,0.061385416666666616,16.051271034738047,-36.19,29.27,65.46,2.245,33.49433699073695,1000.0,1023.8362630208334,0.07880950133074055,0.17116012950028858,0.0,64.58862247898837,0.021708678480653665,64.59102104782058,0.0,0,0.23468320000000004,0.001079389785943894,4.78151171373474e-07,34.634,0.015620499351812384,1.2361114464278217e-05,65.98766666666667,0.6199445315689314,1.5999999999999943,-0.0010492016735030565
S050,10194.0,10223.984375,N2,-0.03131770833333336,17.151008032908585,-38.46,32.73,71.19,1.52,85.92445351568037,1062.5,1000.8463541666666,0.09090593428863095,0.16232629604869594,0.0,64.58812942628693,0.02491077167431454,64.59102104782058,0.0,0,0.23530234999999997,0.0009055521395811538,2.3629563701596132e-07,34.64833333333332,0.00897527467855572,6.6319462434736804e-06,65.85033333333334,0.1405817279102176,0.5499999999999972,0.00019086810733184338
S050,10224.0,10253.984375,N2,-0.035380208333333336,15.077363384434129,-36.31,26.82,63.13,2.105,78.4329596527186,1109.375,1074.5442708333333,0.07880950133074056,0.13564084008881688,0.0,64.58888862419909,0.02159376785985922,64.59102104782058,0.0,0,0.23571867499999996,0.0008671753971227535,2.882806771594729e-07,34.669999999999995,0.017320508075689977,1.958333864565487e-05,65.80699999999999,0.19616574624536148,0.5600000000000023,-0.0001744792139971813
S050,10254.0,10283.984375,N2,0.13557812500000002,15.310866640067706,-34.23,28.26,62.489999999999995,2.6550000000000002,0.0,1109.375,1109.375,0.09090593428863096,0.13564084008881688,0.03225804701500421,64.5893234920844,0.03978066796149378,65.55150646628954,0.0010416666666666667,1,0.23619904999999994,0.0009668981060587534,3.419336865054494e-07,34.7,0.019999999999999338,8.402780057176917e-06,65.628,0.2297157664012937,0.6500000000000057,0.00018583338374386708
S050,10284.0,10313.984375,N2,-0.1808125,14.82375793230843,-33.01,25.48,58.489999999999995,1.875,205.74655193799063,1000.0,926.3346354166666,0.09636964965693294,0.1356408400888169,0.0,64.5880401675607,0.026311852220289454,64.59102104782058,0.0,0,0.23685022499999994,0.0008560657827381054,1.7263481245519055e-07,34.72633333333333,0.020080393975772052,2.2812506188288846e-05,66.13766666666668,0.2125509089345172,0.6000000000000085,0.00030079869270798225
S050,10314.0,10343.984375,N2,0.09421354166666672,14.504125749471537,-33.01,30.44,63.45,2.33,106.8300083211309,812.5,886.0270182291666,0.09090593428863096,0.1592592172022985,0.0,64.58815362130608,0.024902287097650983,64.59102104782058,0.0,0,0.23713844999999995,0.0010084344289541113,1.7124483811980274e-07,34.751999999999995,0.010770329614270692,7.152779718094574e-06,66.56433333333334,0.30381664792363816,0.8800000000000097,-6.468751754761406e-05
S050,10344.0,10373.984375,N2,-0.05474999999999992,15.04342320445494,-32.93,27.21,60.14,2.09,0.0,921.875,921.875,0.08507936450096985,0.14282613750835507,0.03225804701500421,64.58755817781454,0.038669032705830324,64.59102104782058,0.0,0,0.23754409999999998,0.0008389218914773901,1.3232555672893678e-07,34.77733333333334,0.015040685563570548,1.993056096206476e-05,66.12533333333333,0.043492017147470155,0.15000000000000568,-4.95139023203999e-05
S050,10374.0,10403.984375,N2,-0.008442708333333293,15.78802995355741,-37.63,29.57,67.2,1.8650000000000002,74.25368529713269,906.25,904.4596354166666,0.06441510347391793,0.17677362623014656,0.0,64.58913972670896,0.017917319414910683,64.59102104782058,0.0,0,0.237981775,0.0009708382843579011,1.4372334627912007e-07,34.79466666666667,0.011175369742827283,8.95833576343765e-06,65.27266666666667,0.42447562421834584,1.3699999999999903,-0.0007332640877995008
S050,10404.0,10433.984375,N2,-0.015859374999999898,15.781152309632143,-35.31,25.57,60.88,2.4850000000000003,33.435655544981465,937.5,928.6702473958334,0.08507936450096985,0.15612494995995996,0.0,64.5884606352047,0.02333326560769945,64.59102104782058,0.0,0,0.23850485,0.0008748291133129871,3.7251312188398194e-07,34.82333333333333,0.01164283279771436,6.597224011833667e-06,64.633,0.0681248853210064,0.25,-1.2048614379506341e-05
S050,10434.0,10463.984375,N2,0.10644791666666673,15.573069743530679,-38.93,44.03,82.96000000000001,2.285,57.75429255471333,937.5,898.3235677083334,0.21182234678433295,0.36804753004876967,0.05589199343873463,64.57673221511605,0.08434898059732789,65.58963332722634,0.0010416666666666667,1,0.238622275,0.0009052374823078119,-2.0210226836541582e-07,34.83433333333333,0.012827920936595823,1.0243058334163956e-05,65.971,0.8126227086826124,2.5900000000000034,0.0014226045525728486
S050,10464.0,10493.984375,N2,-0.21261979166666664,15.357857186321327,-32.74,29.5,62.24,1.68,98.96372429067114,859.375,934.7086588541666,0.1462753717308556,0.34546761536197407,0.0,64.5818638116352,0.0402071561446472,64.59102104782058,0.0,0,0.23897455,0.0009035364394975912,2.390755856867337e-07,34.85866666666667,0.018571184369576728,7.638890961069508e-06,67.07466666666667,0.19862415652572488,0.7600000000000051,-0.0003232639765798548
S050,10494.0,10523.984375,W,0.20010937499999995,15.920115490398317,-34.11,30.92,65.03,1.895,114.36128197066967,765.625,781.005859375,0.13928372696486196,0.3342289400620479,0.0,64.58267150175487,0.038188520363659495,64.59102104782058,0.0,0,0.239412225,0.0012016371017803125,2.588132212492432e-07,34.87766666666666,0.012023125864581721,2.7430562996567767e-06,65.64566666666666,0.6622823332151395,2.030000000000001,-0.0011797572644740844
S050,10524.0,10553.984375,N1,-0.19675520833333343,14.758535265033712,-35.36,26.16,61.519999999999996,1.41,128.95740431665104,671.875,779.2561848958334,0.11110243021644485,0.3443744328488978,0.0,64.58443347873866,0.0308582303895326,64.59102104782058,0.0,0,0.2398499,0.0008864750363095362,-1.2231774151413705e-08,34.89599999999999,0.014742229591663271,8.402780057176644e-06,65.16866666666667,0.3669126447656032,1.1500000000000057,0.000660625179206051
S050,10554.0,10583.984375,N2,0.08284375000000004,15.73870356254773,-35.06,28.06,63.120000000000005,1.84,18.495886359640426,671.875,674.6744791666666,0.11557806855349136,0.4168944689773287,0.0,64.58214247326934,0.0322525814384216,64.59102104782058,0.0,0,0.24003137500000005,0.0010467489356932715,2.471374368319858e-07,34.922,0.011075498483891813,1.388889265642279e-07,66.14799999999998,0.29415868733276146,0.9000000000000057,0.00051361125043708
S050,10584.0,10613.984375,N2,0.0296041666666667,15.475830492307976,-36.23,27.21,63.44,1.8,27.671462028356526,734.375,733.2926432291666,0.10642856726723118,0.4090767042988393,0.0,64.58297425623896,0.029909050672791915,64.59102104782058,0.0,0,0.24026622500000003,0.0008399400421309857,2.43801498427056e-07,34.92933333333333,0.012092238098146593,4.097223333665824e-06,66.54400000000001,0.250713648079502,0.6699999999999875,-0.00043444456229507083
S050,10614.0,10643.984375,N2,0.01556249999999994,15.243062882431484,-34.92,28.62,63.540000000000006,2.205,118.08871105954036,734.375,800.7731119791666,0.1462753717308556,0.38261793525003507,0.0,64.58094440090731,0.040252787736328656,64.59102104782058,0.0,0,0.24044770000000001,0.0008202402148151494,2.4463548302828746e-08,34.948,0.015790292376436203,1.604167101824783e-05,66.18533333333333,0.17757126894730393,0.7000000000000028,-0.00024194451007609344
S050,10644.0,10673.984375,N2,-0.023463541666666674,15.332026353957994,-34.07,29.64,63.71,2.09,104.4818658375486,984.375,918.8395182291666,0.14627537173085564,0.35293904887702954,0.032258047015004204,64.58269505431457,0.05082179402731702,65.55150646628954,0.0010416666666666667,1,0.24087470000000002,0.0009047967782878129,2.2795579100363328e-07,34.966666666666676,0.014681810363696379,1.0763891808781787e-05,65.73066666666666,0.056623512980227934,0.21999999999999886,8.562502322727166e-05
S050,10674.0,10703.984375,N2,0.11029166666666661,13.667728639570313,-34.05,29.25,63.3,2.035,68.97859427459332,921.875,935.9375,0.1462753717308556,0.2870750936166354,0.0,64.58297688468555,0.03995888104556754,64.59102104782058,0.0,0,0.240949425,0.0009499550486075677,3.085743024561376e-08,34.98266666666667,0.013646326326972876,8.263891130612293e-06,65.02433333333333,0.6445550575569345,1.6500000000000057,-0.0011287850284247597
S050,10704.0,10733.984375,N2,-0.05062499999999992,14.29183639446106,-33.35,25.78,59.13,2.05,113.03976313545189,875.0,831.2906901041666,0.1821904480893551,0.27638539919628335,0.03225804701500421,64.58075292891041,0.05860433741993557,65.55150646628954,0.0010416666666666667,1,0.24123765,0.0009055521395811532,-3.2803394315157434e-08,34.99166666666667,0.011571036638473444,7.395835339582003e-06,64.00233333333333,0.14190802968433072,0.46999999999999886,-0.00013579864794885333
S050,10734.0,10763.984375,N2,-0.06878645833333337,15.416619753404655,-34.21,29.24,63.45,1.72,99.2939231227703,828.125,831.3232421875,0.1462753717308556,0.318518434404597,0.0,64.58242039924498,0.0400046895737754,64.59102104782058,0.0,0,0.24139777499999995,0.0007169754698558406,4.36451941311834e-08,35.019999999999996,0.014142135623731487,1.250000339084341e-06,64.604,0.9025283005719731,2.3999999999999986,0.0015670837584320094
S050,10764.0,10793.984375,N1,-0.1456354166666668,14.628585565184089,-35.89,26.51,62.400000000000006,1.77,132.68761815993062,859.375,886.3199869791666,0.17950549357115012,0.3259334884434075,0.0,64.57916422145605,0.048803601777967665,64.59102104782058,0.0,0,0.24168599999999998,0.0007457234406936688,5.0039076073968284e-08,35.03966666666666,0.014255603186894228,4.9652791246950284e-06,66.10633333333334,0.3361991803810501,1.1800000000000068,0.0005432293140270513
S050,10794.0,10823.984375,W,0.08878645833333344,13.838039331413006,-33.21,27.11,60.32,1.99,116.1555481455811,859.375,923.095703125,0.15612494995995993,0.28103965899950056,0.0,64.5822252081238,0.04256955696867296,64.59102104782058,0.0,0,0.24228379999999994,0.0012478339873556916,3.480495735811573e-07,35.04600000000001,0.011999999999999034,1.2083336611147665e-05,66.846,0.6186846261761062,1.6000000000000085,-0.0009770835983842245
S050,10824.0,10853.984375,N2,0.1294479166666667,14.629889749078906,-32.64,28.46,61.1,1.86,147.8461529553873,687.5,805.6884765625,0.17116012950028858,0.24762544169571912,0.0,64.58129501410964,0.046557855126951674,64.59102104782058,0.0,0,0.24245459999999994,0.0009885764714982874,2.574232469138589e-07,35.06866666666667,0.014544949486182597,1.458333728931837e-05,66.98533333333333,0.42378243894191303,1.2800000000000011,0.00018236116057974156
S050,10854.0,10883.984375,N2,-0.1368541666666666,16.093660352487642,-36.59,30.21,66.80000000000001,1.43,55.13279323317177,937.5,952.2216796875,0.17677362623014653,0.2943625410196677,0.0,64.58002772079523,0.04807544060296903,64.59102104782058,0.0,0,0.24260404999999993,0.0008299083066821327,2.1905995525715007e-07,35.076666666666675,0.013984117975603644,1.069444734550006e-05,66.307,0.5091833330605652,1.4200000000000017,0.0007353821439296181
S050,10884.0,10913.984375,N2,0.14789062499999991,16.446728669737148,-35.73,30.68,66.41,2.12,94.51409771911985,937.5,925.2522786458334,0.16532992583014122,0.35083605501715465,0.0,64.58004602543191,0.045059439612679705,64.59102104782058,0.0,0,0.24295632499999992,0.0010393196665968584,6.421681429492548e-08,35.10200000000001,0.011075498483889163,3.6111120906874126e-06,65.965,0.17629047998497618,0.7199999999999989,-0.00017413199168076862
S050,10914.0,10943.984375,N2,-0.13371354166666663,15.545385422316112,-33.54,27.68,61.22,1.635,38.556392537070295,781.25,791.1702473958334,0.16232629604869597,0.32834152908552733,0.0,64.58081264252526,0.04440455365588812,64.59102104782058,0.0,0,0.24340467499999993,0.0008671753971227534,6.366082456077079e-08,35.114000000000004,0.012000000000000455,-5.555557062602415e-07,66.23633333333333,0.41347699116422804,1.1500000000000057,-0.0005978126621670648
S050,10944.0,10973.984375,N2,0.1336614583333333,13.740464829442253,-37.98,36.79,74.77,2.495,79.50002520738758,812.5,813.4765625,0.7236690069342628,0.43100335136619167,0.2571123700511769,64.4630455644528,0.2624529582311076,65.87108622149782,0.06354166666666666,49,0.24319117499999993,0.0010843929612345355,-4.033705521295998e-07,35.132666666666665,0.012364824660660214,5.4166681360324394e-06,67.50766666666667,0.6390445124472075,2.1300000000000097,0.0011177433587628474
S050,10974.0,11003.984375,N2,-0.14059374999999996,30.766034636456283,-193.22,163.07,356.28999999999996,1.835,76.3467443171062,796.875,831.0709635416666,8.426458825232181,5.1653387910561,2.104366481849242,64.64395245037853,1.3784181488937812,77.44029958619737,0.052083333333333336,22,0.22539594999999998,0.01261839186653751,-2.1144289589922303e-05,35.153,0.02841947688939069,2.9895841443098037e-05,68.73066666666665,0.2961748732684045,0.8299999999999983,0.000519444585352806
S050,11004.0,11033.984375,N1,-0.007052083333333374,9.968497768877748,-20.99,18.07,39.06,0.53,35.29989402017843,750.0,742.9361979166666,0.39842898956052664,0.05581428468591172,0.0,64.68864815944417,0.08321240077731498,64.73020933072904,0.0,0,0.21033352499999997,0.0009825060301977828,-8.893055797812475e-07,35.27333333333333,0.025862886321695422,4.145834457963006e-05,67.546,1.0237727612447332,3.219999999999999,-0.0018413199439344457
S050,11034.0,11063.984375,N1,0.040380208333333306,9.422654908916329,-20.1,17.37,37.47,0.75,64.87168778800844,906.25,927.9296875,0.07198059875565238,0.24762544169571915,0.0,64.72455667807452,0.02264567775357723,64.73020933072904,0.0,0,0.20940480000000003,0.0008582593780437269,-4.5035168466571467e-07,35.330666666666666,0.012892719737209016,1.798611599015807e-05,64.93566666666668,0.3601359311272468,1.6899999999999977,-0.0005143404173015458
S050,11064.0,11093.984375,N2,0.1492916666666667,8.950651542761038,-21.15,17.13,38.28,0.86,41.633146631174974,859.375,865.5680338541666,0.0,0.4394290309752974,0.0,64.71202315464105,0.03056522862976645,64.73020933072904,0.0,0,0.20835865000000003,0.0011769641360296437,-2.496393906356868e-07,35.353333333333346,0.016397831834996063,1.166666983145212e-05,64.086,0.2736981305501864,0.8500000000000014,0.0002705556289484669
S050,11094.0,11123.984375,N2,-0.12283854166666673,9.433050773243927,-20.17,17.5,37.67,0.675,67.65326143143793,906.25,917.6513671875,0.0,0.4994256684071103,0.05581428468591172,64.69072213255217,0.06496128790324449,64.73020933072904,0.0,0,0.20796367500000004,0.0007486973483157251,-2.382416010855028e-07,35.38666666666666,0.009067647005824436,5.486112599314638e-06,64.39933333333333,0.1325124732074516,0.480000000000004,0.0001399305935141593
S050,11124.0,11153.984375,N1,-0.07162499999999997,9.249426973523368,-21.2,15.7,36.9,0.5549999999999999,71.34939163826063,984.375,972.4527994791666,0.08507936450096985,0.4898979485566356,0.0,64.69010638210287,0.039932512421414615,64.95382975621992,0.40208333333333335,153,0.20763275000000003,0.000884158123584232,6.393881942784769e-08,35.393333333333324,0.011642832797714426,5.902779379008309e-06,63.641,0.47144706312939716,1.3900000000000006,-0.0006577432339798274
S050,11154.0,11183.984375,N1,0.14228125,8.362757912319662,-18.49,14.15,32.64,1.4049999999999998,100.62187762579372,906.25,856.4208984375,0.11557806855349138,0.437141470156465,0.04559597630883185,64.6795514387696,0.0595176127382846,64.88451279003334,0.013541666666666667,12,0.20730182500000005,0.0009736512950615252,-9.702020861008086e-08,35.39466666666666,0.014313940369055296,1.7361115820612478e-06,63.879666666666665,0.19627333548452847,0.6300000000000097,0.0003489931502260065
S050,11184.0,11213.984375,N1,-0.05878645833333334,9.352052010578568,-20.42,16.72,37.14,0.955,79.36928068500053,906.25,884.9772135416666,0.2530285309999645,0.40232478717449166,0.09636964965693294,64.68104216654692,0.11306745499496369,64.95382975621992,0.06875,54,0.20757937500000004,0.0009698988010998824,-1.2704365425446336e-07,35.39866666666665,0.01431394036905502,1.3194448023666388e-06,64.13866666666667,0.21051893554315443,0.730000000000004,0.00023548617499082365
S050,11214.0,11243.984375,N1,0.0336145833333333,9.585217408495264,-20.77,17.53,38.3,1.05,116.99216004493206,796.875,848.2991536458334,0.22428271082497644,0.28103965899950056,0.07880950133074055,64.67247108043664,0.09478581163786093,64.95382975621992,0.053125,43,0.20772882500000006,0.0008592546155680468,3.864128652378617e-08,35.40066666666665,0.011234866364233528,-5.555557062600442e-07,63.85833333333334,0.6103610042880815,1.8100000000000023,-0.0010957989083655896
S050,11244.0,11273.984375,N2,-0.031223958333333388,10.636012793210746,-22.9,20.64,43.54,0.76,76.781991089994,984.375,974.1943359375,0.36010794822525094,0.18219044808935517,0.07198059875565237,64.69225365232795,0.10618717528148448,64.95382975621992,0.15208333333333332,122,0.20803840000000004,0.0008656628616268577,-6.67187680986245e-08,35.40733333333332,0.00997775303139627,1.250000339084291e-06,63.413,0.23723616924912616,0.7199999999999989,0.00022593756128948508
S050,11274.0,11303.984375,N2,0.002447916666666683,9.523782377739284,-19.83,18.61,38.44,1.15,96.7568771186359,953.125,954.8746744791666,0.44492581895749767,0.17116012950028858,0.11557806855349137,64.71043217938478,0.15332587488595914,64.95382975621992,0.26979166666666665,168,0.20796367500000007,0.0008350415973920087,2.585352263821798e-08,35.41066666666666,0.013148721948877168,-6.597224011833174e-06,63.53,0.4785464101491794,1.2800000000000011,0.0008340974484856363
S050,11304.0,11333.984375,N2,-0.0030989583333332904,9.191030967209677,-19.35,16.69,36.040000000000006,0.965,92.19034481508366,1015.625,976.85546875,0.4540507784103007,0.09636964965693297,0.10642856726723121,64.71523032955965,0.13846199976461293,64.95382975621992,0.2833333333333333,173,0.20803840000000007,0.0008656628616268564,-3.530534811885508e-07,35.411333333333324,0.011469767022723534,-3.1944453109930035e-06,63.952,0.1743062439118773,0.6700000000000017,-1.201389214786534e-05
S050,11334.0,11363.984375,N2,-0.01273958333333333,8.672338916713866,-20.6,17.94,38.540000000000006,0.55,76.20629687583879,1031.25,972.0133463541666,0.45780153807505813,0.08507936450096987,0.12401959270615269,64.71288446052684,0.1577227477931385,64.95382975621992,0.29375,166,0.20699225000000002,0.0010404702963083495,2.1739198605468137e-07,35.39433333333333,0.01782943882708753,-1.2812503475613036e-05,65.70166666666667,0.351445428038108,1.4200000000000017,0.00032461814361386363
S050,11364.0,11393.984375,N2,-0.12756770833333334,10.255174637439087,-22.38,19.23,41.61,0.695,68.24822778384292,968.75,956.6080729166666,0.481018838782733,0.032258047015004204,0.12801909579781012,64.78700249542324,0.16625580096963782,64.95382975621992,0.0010416666666666667,1,0.20745127500000002,0.0011373259424522885,3.277559482844887e-07,35.38533333333333,0.013349989596334193,3.1250008477118142e-06,66.20166666666667,0.27714115937951656,1.0700000000000074,-0.00018274310512779487
S050,11394.0,11423.984375,N2,0.08625000000000008,30.891679025602237,-168.0,332.45,500.45,0.715,13.790629690779244,937.5,938.8509114583334,5.769628992110085,2.6062125297066623,2.5039933384274184,64.45575780673865,1.1717482205585328,75.39230729988306,0.029166666666666667,9,0.21596992499999998,0.0020084608956549284,2.3815820262538037e-06,35.336666666666666,0.042921116274185475,-7.277779752001762e-05,64.037,0.6582408373840075,2.0600000000000023,-0.0011776739305756094
S050,11424.0,11453.984375,N1,0.010619791666666682,11.617464178501907,-26.82,24.49,51.31,0.91,28.573395433353973,984.375,979.7770182291666,0.17116012950028855,0.032258047015004204,0.4976986970603355,64.37838049255772,0.44623441761185684,65.30696746902278,0.45208333333333334,193,0.21768859999999995,0.0009461687957230496,8.228648065497007e-07,35.248666666666665,0.020612833111655567,-2.8888896725506928e-05,62.919333333333334,0.19731418826047126,0.5300000000000011,-0.00032312508765328936
S050,11454.0,11483.984375,N2,0.04997916666666667,10.966170437398189,-26.07,22.51,48.58,0.97,5.480919271186589,953.125,954.1178385416666,0.24258983158592795,0.18998355191963331,0.4988876515698588,64.46566805538075,0.4360529480029937,65.3299318842443,0.008333333333333333,8,0.21848922499999995,0.0007720763397326744,-3.8641286523786626e-08,35.205666666666666,0.023192431715731335,-2.7256951838363995e-05,63.26633333333333,0.4675359760370193,1.4299999999999997,0.0007547571491854233
S050,11484.0,11513.984375,N2,-0.06368749999999994,11.88347635401823,-26.08,22.13,48.209999999999994,1.0,31.544228480392054,953.125,956.4453125,0.05581428468591172,0.0,0.36110844016106236,64.7146702994932,0.3227326466723889,64.85368146836385,0.0,0,0.21858529999999998,0.0008090495102278998,3.8474489603540065e-07,35.18266666666667,0.011813363431113652,-5.208334746184852e-06,64.31400000000001,0.1699529346613356,0.5300000000000011,0.00013854170424850866
S050,11514.0,11543.984375,N2,0.04615624999999999,11.230518892757624,-24.41,22.85,47.260000000000005,1.05,105.48979341281313,984.375,913.4358723958334,0.07198059875565235,0.0,0.3745309566644658,64.70073229723563,0.334836081466794,64.85368146836385,0.0,0,0.219065675,0.0009132585720238303,3.9836664452220305e-07,35.15966666666665,0.00795124029458461,-4.2708344918714475e-06,64.47233333333334,0.21881016632891714,0.7000000000000028,0.00014975698506862578
S050,11544.0,11573.984375,N2,0.003750000000000068,12.983140650313905,-28.38,23.28,51.66,1.275,112.4378594922924,906.25,933.0159505208334,0.17399263633843817,0.0,0.3146988612370386,64.74039024660011,0.2879451069092355,64.85368146836385,0.0,0,0.21938592500000004,0.0007667444615874339,1.58457074234233e-08,35.149999999999984,0.00894427190999738,-6.805557401679799e-06,64.59533333333334,0.17060155007762795,0.5300000000000011,0.00024888895640434147
S050,11574.0,11603.984375,N2,-0.004739583333333345,11.594666721838816,-26.42,20.2,46.620000000000005,0.9099999999999999,108.62954431804482,812.5,864.6647135416666,0.1721462506046014,0.032258047015004204,0.3108009366495253,64.74643226137903,0.2841820238139439,65.30696746902278,0.0020833333333333333,1,0.219578075,0.0008671753971227533,-3.586133785301062e-08,35.13466666666667,0.011175369742825628,-1.3125003560383405e-05,65.13933333333333,0.24819257755935367,0.9000000000000057,0.0002479861783816672
S050,11604.0,11633.984375,N1,0.00914583333333332,11.835114930419248,-26.92,22.8,49.72,1.56,45.68099439776236,984.375,986.7431640625,0.25258859488086327,0.13981246740425785,0.3342289400620479,64.72104146188467,0.30331571396913215,65.3299318842443,0.0020833333333333333,2,0.219727525,0.0010839725316515196,2.1711399118760648e-07,35.12333333333334,0.013984117975602285,-1.1527780904889496e-05,65.56333333333333,0.23246983077858088,0.6700000000000017,0.00024097228759013765
S050,11634.0,11663.984375,N2,-0.016651041666666682,12.62224302335873,-29.22,24.47,53.69,0.975,25.91873526827132,984.375,978.8981119791666,0.22219509383022434,0.0,0.2900232719350102,64.74793650936546,0.27296418418783835,64.85368146836385,0.0,0,0.21974887500000004,0.000841566521063549,3.9336273691480627e-07,35.10933333333334,0.015040685563570915,-1.437500389946883e-05,65.64466666666665,0.2767638383572221,0.8700000000000045,-0.0003387500918918451
S050,11664.0,11693.984375,N2,-0.09418749999999992,13.888050411619231,-29.31,24.58,53.89,1.23,70.89242854253222,890.625,882.8206380208334,0.2242827108249764,0.0,0.2957874817753449,64.74375737041346,0.2777256938683998,64.85368146836385,0.0,0,0.22043207500000006,0.001008151883088557,-9.090432153437555e-08,35.094666666666676,0.013349989596333328,-6.319446158703263e-06,65.43433333333333,0.13383281444482178,0.5,2.3368061894548637e-05
S050,11694.0,11723.984375,N2,0.022354166666666602,13.517621076286536,-28.06,23.63,51.69,1.335,94.21626491021222,828.125,849.5849609375,0.20912350152216008,0.0,0.29860606423383673,64.74511917727962,0.27719016311465955,64.85368146836385,0.0,0,0.22089110000000006,0.000886475036309542,3.480495735811579e-07,35.08333333333334,0.010749676997732492,-8.333335593891406e-07,64.75666666666667,0.24310948608029007,0.8800000000000097,-0.00042854178291606743
S050,11724.0,11753.984375,N2,0.004947916666666696,13.891908226156476,-28.63,23.63,52.26,1.1,103.69755685955566,906.25,855.5257161458334,0.2494438257849294,0.0,0.29720193985833193,64.73683039716238,0.28700777405488354,64.85368146836385,0.0,0,0.22131810000000005,0.0009746456227778405,3.6806520401074457e-07,35.07933333333334,0.011234866364236255,1.6666671187789974e-06,63.82566666666666,0.3383753668470704,0.8699999999999974,-0.0005780209901315626
S050,11754.0,11783.984375,N2,-0.06798437499999999,14.174448175978698,-30.52,23.86,54.379999999999995,1.205,135.7662042462099,750.0,864.013671875,0.24578919095210203,0.0,0.26339134382131846,64.75824031174233,0.25310418138447505,64.85368146836385,0.0,0,0.221819825,0.0010458776431184502,1.1425589036889464e-07,35.078,0.015143755588801594,-3.3333342375576745e-06,63.63733333333333,0.1322102702347878,0.5200000000000031,0.00022381950515937098
S050,11784.0,11813.984375,N2,0.13479166666666662,46.74959407976998,-463.44,207.28,670.72,1.4,36.257525974544265,1000.0,1005.4606119791666,11.654591965782794,6.071234758519518,3.9248673013661666,64.65787718187318,4.00293663041751,104.29285689825551,0.035416666666666666,13,0.2151906166666667,0.007693165527686829,-1.0328089607229177e-05,35.080000000000005,0.01693123346560136,9.37500254313179e-06,64.12166666666667,0.3689993977712632,1.2199999999999989,0.0005386459794504057
S050,11814.0,11843.984375,N2,0.014458333333333335,10.875552290493752,-27.38,21.61,48.989999999999995,0.735,85.88463245632974,890.625,879.9723307291666,0.4189468857212756,0.33107142723369465,0.4550056757124636,64.52001452380632,0.40699203246479243,64.91532946846992,0.0,0,0.210589725,0.0010881695177567719,5.017807350750705e-07,35.14233333333333,0.023335714164248754,3.732639901432112e-05,65.49066666666666,0.19262975424949869,0.7000000000000028,6.319446158705865e-06
S050,11844.0,11873.984375,N2,0.008348958333333408,11.483636665975842,-22.94,20.35,43.290000000000006,0.825,75.40487573106216,1000.0,990.0390625,0.46137132362543826,0.4888058986931542,0.4287201864431962,64.54797555753022,0.39725276313145225,64.91532946846992,0.0,0,0.21121954999999998,0.0008933897231891608,1.8792453014445864e-07,35.230000000000004,0.030110906108363932,4.8194457518028745e-05,64.76166666666666,0.4195003641900161,1.4300000000000068,-0.0006555210111547898
S050,11874.0,11903.984375,N2,-0.0483802083333333,26.15654040323105,-179.6,167.03,346.63,0.47,65.25395975647042,1000.0,961.3118489583334,11.933878841043608,6.7933343268266775,3.242531315438175,64.69842194858627,2.414933890611532,93.8669270829721,0.025,13,0.2032131166666667,0.005384317750317944,-7.583470807148108e-06,35.299333333333344,0.014360439485692277,1.5833337628401845e-05,62.891,0.3710197658705886,1.25,3.5034731725999207e-05
S050,11904.0,11933.984375,N2,0.009494791666666691,10.513935083625027,-21.18,18.68,39.86,0.1,61.93062513621816,1015.625,983.740234375,0.4261919050504779,0.424095237928149,0.4553775429214996,64.70322737968127,0.436214763539844,65.80273550544841,0.0010416666666666667,1,0.19584655833333334,0.0010483682304406345,-2.640692990639391e-07,35.31066666666667,0.01209223809814432,-6.250001695422937e-07,63.03999999999999,0.17776388834631213,0.5499999999999972,-1.7361115820614098e-05
S050,11934.0,11963.984375,N2,-0.11007291666666662,10.561396238922034,-21.88,17.98,39.86,0.33499999999999996,86.45713184854702,1015.625,968.4977213541666,0.07905694150420949,0.0,0.5041451441687095,64.54867659021886,0.48906419278298785,66.0,0.003125,3,0.19553697500000003,0.000871893327405942,-3.474935838470018e-08,35.337999999999994,0.01777638883463036,2.1875005933975025e-05,63.367333333333335,0.18521938943377983,0.6999999999999957,-0.0001081944737940729
S050,11964.0,11993.984375,N2,0.04223437500000006,10.556666187634791,-20.88,20.06,40.94,0.29500000000000004,83.84708350931545,953.125,943.1966145833334,0.11987768650679832,0.06451609403000842,0.4568809849129202,64.35375174989126,0.4447029495813958,65.37583651472461,0.296875,200,0.19561172500000001,0.0011168541083664437,4.765355025324179e-07,35.32866666666666,0.01024152766382487,9.722224859542564e-07,63.18233333333333,0.21521591225764147,0.6499999999999986,-3.2951397827529136e-05
S050,11994.0,12023.984375,N2,0.125625,10.913768288506418,-21.92,20.58,42.5,0.53,110.77263869614646,781.25,849.1373697916666,0.2716154572133593,0.06441510347391793,0.41758232721225164,64.30077549149239,0.41188128470479796,65.28399497579785,0.225,159,0.1961668083333334,0.0008740822167263362,3.1638137922672e-07,35.371,0.016401219466855934,1.968750534057644e-05,63.43266666666667,0.09323566318147208,0.3500000000000014,3.750001017252584e-06
S050,12024.0,12053.984375,N2,-0.03132291666666664,12.027716581569344,-44.61,43.54,88.15,0.975,38.00901464425815,1031.25,1012.6302083333334,0.5330229809903968,0.33540857909504274,0.3773019624032365,64.33744871325872,0.3608227664703547,65.71149062378664,0.17395833333333333,117,0.19600668333333335,0.0010907288158484801,-7.153009752878098e-07,35.40999999999999,0.02129162589689574,3.1805564183367746e-05,63.97766666666667,0.4146458998015328,1.25,0.0006796876843770855
S050,12054.0,12083.984375,N2,0.043281250000000014,10.697436616820799,-22.37,20.6,42.97,0.64,138.36589145709746,906.25,928.5237630208334,0.05581428468591172,0.19497818610181897,0.07880950133074055,64.32546808735111,0.07765528426848003,65.28399497579785,0.009375,9,0.19540888333333334,0.0009485533738570328,2.343498899603659e-07,35.405333333333324,0.014313940369055547,-9.652780396262391e-06,64.57166666666666,0.19454362549881302,0.5799999999999983,-0.0003404514812422642
S050,12084.0,12113.984375,N2,-0.15284375000000008,11.220179283910126,-23.58,19.64,43.22,0.135,76.04739677055649,1015.625,968.7906901041666,0.09636964965693294,0.29720193985833193,0.06441510347391796,64.32379538372169,0.06749641797966367,65.28399497579785,0.013541666666666667,13,0.19580385,0.0009155640761301229,1.0230211108455738e-07,35.418,0.012220201853216399,7.222224181375763e-06,64.45800000000001,0.3941522548457641,1.4199999999999946,-0.0004952084676672267
S050,12114.0,12143.984375,N2,0.16472916666666665,10.883297774456171,-22.26,19.89,42.150000000000006,0.62,113.56510655345117,953.125,933.3170572916666,0.12401959270615269,0.3630921887069453,0.07880950133074056,64.32614083314617,0.08354947185722937,65.28399497579785,0.021875,18,0.19572912500000003,0.0008734603078417503,3.1413419979768995e-08,35.40799999999999,0.01399999999999972,-1.2291670000995127e-05,63.06266666666667,0.12279884183311952,0.4799999999999969,-0.0001238194780326269
S050,12144.0,12173.984375,W,-0.025364583333333326,11.072527469127317,-23.87,19.4,43.269999999999996,0.49,74.10785979644363,1000.0,975.4720052083334,0.1529193630552463,0.4083426338226542,0.03225804701500421,64.32209270826984,0.0525797370006907,65.28399497579785,0.025,22,0.19597465833333333,0.0009640877250526678,4.5371171161884695e-07,35.44466666666666,0.016275407487645638,2.26388950300829e-05,62.51866666666667,0.1950339001871784,0.6200000000000045,0.0001472222621588168
S050,12174.0,12203.984375,W,-0.06608854166666663,11.490918174007842,-24.13,22.66,46.79,1.12,27.202216899433182,1046.875,1036.6780598958333,0.2200827456448041,0.4559490540954719,0.07198059875565237,64.33151811065056,0.09435347921633894,65.55150646628954,0.05520833333333333,46,0.19656180000000004,0.0008561365603687321,1.7320838031911463e-07,35.501666666666665,0.024369835635244624,3.440973155645783e-05,63.233666666666664,0.3235993750852366,0.9500000000000028,0.0005694793211478196
S050,12204.0,12233.984375,W,-0.06751041666666659,11.385721305007785,-24.59,19.94,44.53,0.7,85.11750120288295,1015.625,984.2692057291666,0.23437268517375384,0.4996483138168285,0.05581428468591173,64.32714145375553,0.08610490807007253,65.5286197016235,0.06041666666666667,51,0.19657248333333338,0.001004001991891563,1.350742553912374e-07,35.558666666666674,0.014313940369057216,-8.402780057177879e-06,64.265,0.21577380131362886,0.7500000000000071,0.00013843753755358546
S050,12234.0,12263.984375,W,0.05128125000000002,11.281146630369557,-23.83,22.66,46.489999999999995,0.725,66.6449173576878,1156.25,1108.349609375,0.3210226714043037,0.4999305507323547,0.03225804701500421,64.34034512217917,0.09236463360899931,65.28399497579785,0.11770833333333333,85,0.19665790000000002,0.0009056924367576458,5.0039510101864056e-08,35.57266666666668,0.016110727964794732,2.347222858947483e-05,64.01166666666666,0.1381082506184517,0.38000000000000256,-0.0002335070077872752
S050,12264.0,12293.984375,W,0.0745989583333334,11.02210073583218,-23.48,20.24,43.72,0.885,48.72592385842122,906.25,927.3111979166666,0.4430586848983878,0.5018671733857697,0.07880950133074056,64.38102885352662,0.1399360379166985,65.28399497579785,0.2552083333333333,104,0.19694618333333339,0.0008673891089867875,-5.819489425859796e-08,35.60800000000001,0.020231987873991032,2.8263896555960684e-05,63.69433333333333,0.20727893176962203,0.740000000000002,0.00020038199880154073
S050,12294.0,12323.984375,W,-0.14289062499999997,10.046715587305323,-22.76,21.72,44.480000000000004,-0.08499999999999999,94.39823541087547,750.0,793.2942708333334,0.9651203283859939,0.887337988929372,0.5061846236936567,64.56754954165743,0.3890216604255999,65.5286197016235,0.22291666666666668,128,0.17658885833333335,0.007878698016694375,-9.817692550372325e-06,35.595333333333336,0.026297443897755287,-4.2777789381996456e-05,65.48733333333334,0.643412430370719,1.960000000000008,0.0011023614101457809
S050,12324.0,12353.984375,N2,0.04658854166666663,14.5719202319862,-80.47,75.92,156.39,0.9299999999999999,125.3083238569082,734.375,796.9645182291666,2.7264090314179237,4.171892035961887,0.7286300108479842,64.48301899179904,0.4684318199579584,66.49060083951716,0.27291666666666664,171,0.17791259166666668,0.009765963654017827,1.283063694407469e-05,35.53433333333332,0.01856220772310009,-1.0104169407597112e-05,64.896,0.8421781284265224,2.549999999999997,-0.0015053476305739017
S050,12354.0,12383.984375,N1,0.26742187500000003,30.053639660494614,-196.86,148.85,345.71000000000004,0.07,0.0,968.75,968.75,15.497364807354257,12.281155065720158,4.7370408702688245,64.72626286432259,2.8944018873126796,81.32650244538985,0.071875,38,0.17380274166666665,0.01978342065783697,1.4557954686945178e-05,35.47966666666667,0.037281213618776544,-5.170140291379153e-05,62.245999999999995,0.43038432437376956,1.5,-0.00018333338306569534
S050,12384.0,12413.984375,N1,-0.17923958333333337,25.82524356622992,-144.48,252.02,396.5,0.565,63.213262678845915,968.75,997.7213541666666,14.933766930960985,4.97233623201073,4.15586934347075,64.39981807417878,2.5535707703805253,93.25234581499814,0.051041666666666666,19,0.16986359999999998,0.009722669044043408,1.5745073281541143e-05,35.40666666666666,0.02180723631172705,1.8888894012827906e-05,65.87066666666666,1.3974713672280448,4.029999999999994,0.0022969450675306706
S050,12414.0,12443.984375,N2,-0.09776041666666666,7.022637101493035,-16.13,15.25,31.38,-0.11,148.27131907387215,1000.0,903.271484375,0.5074862734186347,0.5812826678394563,0.2861380785564899,64.09994588305148,0.26429993670063967,65.34523701081817,0.153125,68,0.18339950000000005,0.0008802830510693656,-6.371642353418574e-07,35.437999999999995,0.017587874611031586,1.8194449380005533e-05,67.23466666666667,0.7231585042175899,2.3900000000000006,-0.0010067363842058336
S050,12444.0,12473.984375,N2,0.1276875,7.61461901721575,-15.12,14.94,30.06,0.445,94.31743418422879,937.5,908.0240885416666,0.045595976308831845,0.40850203785361405,0.16950704672339995,64.04728588004795,0.2050521870375559,65.34523701081817,0.028125,21,0.18257752500000002,0.0007750226444272349,-1.615150177720838e-07,35.46466666666667,0.012578641509407735,5.555557062595877e-06,63.76500000000001,0.9205134436823835,3.249999999999993,-0.0006758682388965504
S050,12474.0,12503.984375,N2,-0.09271354166666669,8.15503170219313,-17.56,14.77,32.33,0.08,145.5591212305864,734.375,837.3209635416666,7.774897004944824,2.3553426266445587,2.2003698789445982,63.93883857558543,1.6801304330010494,82.39538822045807,0.026041666666666668,8,0.1835703,0.0019748461484378967,2.0738417083989005e-06,35.46600000000001,0.010832051206180174,7.361113107939965e-06,63.981333333333325,0.32862068643887304,1.0900000000000034,0.00012375003356934647
S050,12504.0,12533.984375,N2,0.08048958333333336,16.404100350277513,-69.51,89.46,158.97,-0.52,128.52076578470854,734.375,816.9596354166666,13.88058196026217,4.224842694104782,6.454145063311166,64.78992928762439,1.3379323243840904,78.81624198095213,0.03958333333333333,15,0.18576935,0.0011335623615399415,-5.648855699016867e-07,35.44266666666667,0.018245242911206164,-2.2291672713670444e-05,64.51533333333334,0.472896981969177,1.4100000000000037,-0.0006300001708984858
S050,12534.0,12563.984375,N2,-0.036104166666666646,9.049091789694476,-19.46,18.83,38.29,-0.83,19.77575231150724,984.375,987.451171875,0.5364330495659889,0.27480856657660596,0.3630921887069453,64.79572522543822,0.3360816014653786,65.37583651472461,0.058333333333333334,42,0.18788299999999997,0.0011848769134386954,1.455581124018322e-06,35.46833333333334,0.019846634195472113,2.8159729861037533e-05,63.30133333333333,0.21437868882475788,0.7199999999999989,-0.00030229174866855195
S050,12564.0,12593.984375,N2,0.060244791666666644,9.011300983144833,-23.84,21.39,45.230000000000004,-0.42,144.5497277622657,703.125,791.8701171875,0.3642915499065732,0.2645423196558329,0.1288302069478359,64.85708482997431,0.15878924454182775,65.80273550544841,0.00625,4,0.18963370000000002,0.0012478339873556908,1.1842581337505808e-06,35.49000000000001,0.014832396974191886,5.625001525878472e-06,63.309,0.30644575376402305,0.9200000000000017,-0.00016746532320565324
S050,12594.0,12623.984375,N1,-0.032692708333333306,8.701265538303716,-17.15,19.41,36.56,-0.835,6.221403824065265,859.375,857.8369140625,0.40504093585984885,0.30138388852738773,0.24816820222829156,64.58307103387857,0.2538421418777549,65.82552696332935,0.16354166666666667,80,0.19170465,0.0009874230742189407,1.1253232219301177e-06,35.50733333333333,0.01711399687065761,1.2083336611148602e-05,63.803999999999995,0.23005216799673955,0.8700000000000045,-0.000146111150746299
S050,12624.0,12653.984375,W,-0.05071354166666665,8.46570927337308,-19.99,17.98,37.97,-0.41,96.78985484038546,859.375,847.8759765625,0.4274629918191749,0.055891993438734626,0.4422166387140533,64.72545480592137,0.4068171169315017,65.80273550544841,0.26666666666666666,171,0.19284687499999992,0.0008576616811861192,2.2211789879500374e-07,35.547,0.01530795000427284,-9.479169238054894e-06,62.894666666666666,0.531969506227148,1.5,0.0006590974010138346
S050,12654.0,12683.984375,W,0.01700520833333335,8.570288674152476,-17.06,18.54,35.599999999999994,-0.255,126.905195268823,859.375,870.2067057291666,0.44492581895749767,0.0,0.4898979485566356,64.84694428731821,0.449379124401873,65.39877674696982,0.4,218,0.1941065333333333,0.0009202599898337941,2.5658296890814135e-07,35.564,0.019425069712446265,2.1597228080847506e-05,62.50366666666667,0.3644674958834538,1.0599999999999952,0.0002524653462633861
S050,12684.0,12713.984375,W,0.0772239583333333,8.504986089779493,-17.72,18.19,35.91,-0.43,57.974243726317184,1000.0,972.998046875,0.49525088339143825,0.05581428468591172,0.4986690184185855,64.90271439240584,0.45661562733783995,65.39877674696982,0.46041666666666664,219,0.19475769999999998,0.0009490549299171287,2.557552777113934e-07,35.56666666666667,0.015563490039906775,-7.708335424353977e-06,62.04899999999999,0.4310479478356595,1.4299999999999997,-0.0007729515985654292
S050,12714.0,12743.984375,W,-0.17355729166666667,8.688786265800266,-18.0,17.24,35.239999999999995,-0.995,115.87341932279186,1000.0,957.2916666666666,0.49798966515101717,0.07880950133074055,0.49914858064063,64.96140995511722,0.4605340847287867,65.39877674696982,0.0,0,0.19581453333333337,0.0010100025902057017,6.274394063149451e-07,35.56333333333334,0.019550504398155255,2.8194452092681767e-05,61.49766666666667,0.14981507118963505,0.44999999999999574,-4.559029014493523e-05
S050,12744.0,12773.984375,W,0.10743750000000005,9.051316777837378,-18.44,18.64,37.08,-0.505,108.83461534787804,968.75,919.2952473958334,0.4892496646651891,0.18483053424390916,0.4866935994259861,65.02706000899063,0.4555307385869083,65.39877674696982,0.0,0,0.19657247500000002,0.0008883648458685215,1.4398983940696723e-07,35.58933333333334,0.016719914938645927,-1.0069447175957048e-05,62.268,0.3296806535624023,1.1499999999999986,0.0004836112422990551
S050,12774.0,12803.984375,W,0.05891145833333334,8.590271872666607,-16.55,18.88,35.43,-0.455,102.25624439724533,890.625,875.0,0.46393241957267395,0.23040385738958447,0.4833052703778432,65.03066775782757,0.45157240583524805,65.39877674696982,0.0,0,0.19701023333333334,0.0009487362799476423,4.3906001493598577e-07,35.571333333333335,0.011469767022725294,-5.416668136032784e-06,63.09066666666666,0.3084686189694005,0.8400000000000034,0.0005128473613409737
S050,12804.0,12833.984375,W,-0.05090625000000002,9.216884439008894,-17.65,19.49,37.14,-0.605,117.87335466423421,968.75,921.3541666666666,0.48598411039411105,0.41894688572127553,0.44439018766044874,65.05656145344012,0.44494777382800454,65.39877674696982,0.0,0,0.198056725,0.0014636612823242267,1.0290508433840163e-06,35.58466666666667,0.014544949486181987,1.1944447684585632e-05,64.062,0.7737243264453649,2.3999999999999986,0.0012801392361488813
S050,12834.0,12863.984375,W,-0.028536458333333313,34.524581760285365,-224.43,195.37,419.8,-0.815,38.84214854568623,765.625,764.3391927083334,41.71229954293724,11.321637462239677,13.886893676132983,64.74182208248843,5.792830923312053,156.41291506777821,0.05520833333333333,26,0.19232395,0.011877444794546513,9.548410142255352e-06,35.58733333333335,0.019136933459210578,9.861113786109242e-06,68.596,1.8036492637612975,6.0,0.003233195321504809
S050,12864.0,12893.984375,W,0.06186979166666672,29.57578512260431,-245.51,125.03,370.53999999999996,-0.42000000000000004,59.35390108691135,703.125,754.9397786458334,30.909309266069915,18.002811285816122,22.109587160348376,65.28962466699835,6.861601672288149,136.70771741200275,0.07083333333333333,24,2.3151983333333335,1.5150524328320254,0.0026725206064780295,35.636333333333326,0.019232495649000574,2.503472901332419e-05,73.68433333333333,0.6676160739693304,2.490000000000009,0.0011609378149245377
S050,12894.0,12923.984375,W,0.011536458333333202,37.1946304814245,-311.08,134.48,445.55999999999995,-0.27,0.0,812.5,812.5,28.629485865755605,18.207701379908737,15.901854712263301,65.42492364406188,9.408672391398984,133.90294993016397,0.10208333333333333,36,4.057977925,0.5571666046296829,-0.00029401922103385985,35.65833333333332,0.011571036638472658,-1.0451391724009003e-05,74.78333333333333,0.6732326657421066,1.8500000000000085,-0.0008695835692229733
S050,12924.0,12953.984375,W,-0.03639583333333338,38.955326722167484,-204.27,199.72,403.99,-0.37,0.0,812.5,812.5,35.93080370886422,18.699161373380047,20.266971385070434,64.85491965563428,6.3158877545354795,131.85598204101322,0.09791666666666667,39,3.6428024083333335,0.546543079516984,-0.0006598180902284314,35.59066666666668,0.028975085082801635,-4.7569457348487123e-05,75.79633333333335,0.8759280158145917,2.5999999999999943,0.0014330212220652172
S050,12954.0,12983.984375,W,0.008520833333333252,25.65779559087061,-107.82,107.53,215.35,-0.24,0.0,812.5,812.5,29.717360421421464,7.544834092567908,36.66797273656365,64.26595877889837,6.105588333289592,127.07871576310488,0.07708333333333334,32,3.3692003,0.31734275366763937,-0.00018391946829412662,35.53266666666666,0.016519348924484277,1.652778226122466e-05,75.66900000000001,0.49946204393660726,1.539999999999992,-0.0002496875677320887
S050,12984.0,13013.984375,W,-0.08430208333333336,14.48644502314994,-75.11,77.17,152.28,0.32,43.588411801154194,812.5,820.1578776041666,15.254458841267706,13.200003781302069,5.345690335675137,64.68382493909445,3.958203453830649,106.4377752492037,0.04583333333333333,18,2.928955825,0.20973489406393742,-0.00025795292435788964,35.580000000000005,0.020493901531920437,3.1458341866956696e-05,74.412,0.9586462677477384,2.730000000000004,-0.0016221532178150016
S050,13014.0,13043.984375,W,0.04751562500000001,13.059513535189492,-45.46,96.48,141.94,0.015,58.782517021963876,781.25,762.0279947916666,11.711336358655043,11.047807844080301,9.410670795771622,64.47470095594994,4.273028197210925,132.92479076530458,0.027083333333333334,12,2.909465416666667,0.22573788071391504,-3.789502547065581e-05,35.664,0.036842005012394485,6.215279463780162e-05,74.81433333333334,0.5687687481647428,1.8799999999999955,0.0007235765851716002
S050,13044.0,13073.984375,W,0.013161458333333327,11.024866640112457,-51.23,33.87,85.1,-0.2,147.17556026020836,859.375,836.4095052083334,14.757271630359803,13.988487174726934,14.540398106081323,64.25503709993895,4.405796252529448,129.52605915413315,0.03125,10,2.5321509583333333,0.26923750801768553,-0.00043513638648447976,35.79133333333333,0.03964284999284909,6.694446260429188e-05,74.35133333333333,0.7010313037867058,2.3300000000000125,-0.001195694768797408
S050,13074.0,13103.984375,W,0.08997916666666682,33.84232032375144,-172.07,165.19,337.26,0.35,0.0,890.625,890.625,38.06520150967577,17.178702167501545,22.539440740375277,64.16626648974766,7.438262214165873,152.0164464786623,0.0625,24,1.7747651583333335,0.13877381269893804,-0.00022952666404260633,35.806333333333335,0.02414999424890668,-3.8854177206536924e-05,71.93299999999999,0.2991448924295158,1.2999999999999972,-0.00019822922043978152
S050,13104.0,13133.984375,W,-0.1382864583333333,23.96534990076002,-176.33,117.3,293.63,-0.485,44.07126454510276,796.875,813.9404296875,15.110369954601724,16.24485482113405,10.828977038787977,64.02432449169129,4.674224361604771,108.31435731240803,0.09791666666666667,39,1.4107660916666664,0.08669656932822233,-0.00015037031314298863,35.785333333333334,0.016069294390924773,-5.347223672749424e-06,72.40466666666667,0.7528201792076393,2.4200000000000017,0.0011855558771581701
S050,13134.0,13163.984375,W,-0.02102083333333328,12.196415427099854,-23.89,21.56,45.45,0.34,83.91223579081142,750.0,777.1647135416666,0.34738607245157843,0.274318521142242,0.4647736437563511,63.341325874963,0.3313151597471756,64.15605972938177,0.08125,60,1.140758575,0.08251167161889507,-0.00014882372765400595,35.79766666666667,0.02216353361317153,3.5798620822107554e-05,73.69066666666667,0.8770630282685252,3.049999999999997,-0.0014400003906251055
S050,13164.0,13193.984375,W,0.10230729166666662,12.800909258856908,-24.76,22.98,47.74,0.2,113.04076410165966,812.5,840.5598958333334,0.0,0.24206145913796356,0.032258047015004204,63.42580734775047,0.12617693679709144,63.45864795282043,0.0,0,0.8896070916666667,0.06637370746048415,-0.000119256751751506,35.864000000000004,0.02303620339089339,3.0833341697411395e-05,69.78966666666666,0.9704860752335519,3.3599999999999994,-0.0017385768605080476
S050,13194.0,13223.984375,W,-0.09106250000000003,12.804996917555028,-26.3,23.17,49.47,-0.015,85.86642321913428,843.75,845.7682291666666,0.6887858870969185,0.442205596900984,0.45023021696004467,63.16669342781224,0.3522069421751307,65.88626564011653,0.05,21,0.6798116416666667,0.050879155821383255,-9.156132062752839e-05,35.90666666666666,0.014681810363696379,-2.5694451414498927e-06,67.074,0.4625624282191544,1.480000000000004,0.00038736121618956703
S050,13224.0,13253.984375,W,0.08265104166666669,12.62290916692984,-24.51,24.4,48.91,0.215,167.2675092823526,765.625,802.7099609375,0.4030913530316532,0.11987768650679835,0.03225804701500421,63.057853059934395,0.2137969559849877,63.631753079732135,0.21979166666666666,165,0.532216475,0.03520149798516215,-6.333435767533575e-05,35.92399999999999,0.018000000000000866,2.4513895538710104e-05,67.233,0.1409054056214091,0.45000000000000284,1.343750364515577e-05
S050,13254.0,13283.984375,W,-0.0018750000000000413,12.27747960889673,-23.95,22.75,46.7,0.175,83.3152811047761,796.875,799.2757161458334,0.4591611841777956,0.19249988726547926,0.045595976308831845,63.12157996828833,0.25514827123736544,64.1404708432983,0.334375,211,0.4909755,0.027112241887199223,-4.4240225542595915e-05,35.946666666666665,0.013743685418725672,9.236113616566526e-06,66.94500000000001,0.5964380381341668,1.5800000000000125,-0.0009536460920263924
S050,13284.0,13313.984375,W,-0.1199791666666666,12.363544778045357,-25.29,22.6,47.89,-0.025,101.8692457554159,1000.0,965.0227864583334,0.46137132362543826,0.19982631347136331,0.0,63.12451615948798,0.24715305084390696,63.984373092185564,0.34791666666666665,211,0.40384228333333333,0.022368069566602946,-4.024576699375189e-05,35.93933333333333,0.014360439485692737,2.777778531302576e-07,67.246,0.25739204856923287,1.039999999999992,0.00014458337255408388
S050,13314.0,13343.984375,W,0.19034895833333335,12.94033360406439,-42.51,27.32,69.83,0.685,154.27888081244464,1093.75,973.9501953125,8.532770774099896,14.793870104368585,6.599853925019645,63.69113821959245,2.8790471154132464,91.40021881811882,0.053125,16,0.3297244583333333,0.02424315570798482,-4.334570424959424e-05,35.936,0.01280624847486707,1.5208337458860612e-05,66.971,0.27713233902475765,0.7999999999999972,-0.0003764237132225771
S050,13344.0,13373.984375,W,0.06836979166666658,14.472299276647005,-80.28,44.74,125.02000000000001,0.44,47.10280834265821,859.375,841.3411458333334,7.577978234546725,16.816702251314762,13.08662507521993,64.93708741843693,3.3167332236625238,99.7897790357309,0.04895833333333333,16,0.25494476666666666,0.018202473019589643,-3.169066831886619e-05,35.90266666666666,0.03482655436429195,-5.909723825337672e-05,68.07366666666667,0.6305420067071044,1.9200000000000017,0.0011291322507411704
S050,13374.0,13403.984375,N2,-0.8739114583333334,54.016157696124374,-213.78,236.26,450.03999999999996,3.0300000000000002,0.0,859.375,859.375,36.82910595968806,16.166962518770596,19.123254022290286,66.2220014632429,13.47971706684727,158.01582199260935,0.09270833333333334,36,0.19646602500000002,0.014559063155793197,-2.3037651865682465e-05,35.787666666666674,0.037209616439242775,-6.163196116318478e-05,70.613,0.903740928954016,2.730000000000004,0.001612604604113663
S050,13404.0,13433.984375,N2,0.6946249999999998,23.722435661490195,-89.46,132.93,222.39,-0.115,95.43469071377261,718.75,747.2493489583334,43.40687408308655,10.363697355348808,21.995674857948714,65.0313357036807,8.955873394697436,161.8981161101018,0.059375,23,0.18635663333333333,0.017307561156872705,-2.8426719516796738e-05,35.55,0.08778762251403362,-0.00012201392198728174,71.91166666666665,0.1477629482951961,0.519999999999996,0.00024343756603666407
S050,13434.0,13463.984375,N2,0.05364583333333332,12.407420194164699,-24.96,21.05,46.010000000000005,0.485,146.87402400240362,843.75,851.9287109375,0.2091235015221601,0.4659918856589672,0.5623061008398066,63.67849498514841,0.3327683274604479,64.13267497929586,0.32708333333333334,119,0.15453409999999998,0.00700042284008616,-1.2377836691036426e-05,35.529666666666664,0.022432615144521075,2.8993063420426698e-05,71.19533333333334,0.7615279961294199,2.75,-0.001235833668574673
S050,13464.0,13493.984375,N2,-0.05986458333333334,27.695916715104335,-186.73,171.11,357.84000000000003,0.235,90.14576299077024,812.5,798.8444010416666,44.823917652855826,6.670487186522102,16.535194964863333,64.20251190021042,5.40919039259473,92.35799911215054,0.09270833333333334,38,0.1309737,0.006810482678195432,-1.1150374118482562e-05,35.61533333333333,0.028720878971383847,4.3333345088254745e-05,68.208,0.4437371594386325,1.6400000000000006,-0.0007401390896644656
S050,13494.0,13523.984375,N2,0.04310937500000002,10.173041072103453,-24.01,19.01,43.02,0.155,45.86365303795916,812.5,824.9837239583334,0.5024246764994286,0.3705625767180071,0.49874408239318707,64.82055349303215,0.46436679858211005,66.16645675869307,0.27708333333333335,170,0.1159006,0.0033800495765594907,-5.472606953289644e-06,35.577333333333335,0.015902480589169966,-9.930558249392058e-06,67.79966666666667,0.21100526586372653,0.769999999999996,-0.0002034375551859654
S050,13524.0,13553.984375,N2,0.004364583333333402,10.406329880193706,-24.64,34.15,58.79,-0.16999999999999998,148.87971737513612,1078.125,963.5091145833334,0.3656813821674394,0.7789521763597271,1.1193099739162218,64.64886844954727,0.33362882539236116,66.06814663663572,0.13854166666666667,88,0.10585542500000002,0.003618163656383582,-5.986063472781977e-06,35.65366666666667,0.035259356520251424,5.7673626756083165e-05,66.37133333333334,0.5345760521717696,1.8499999999999943,-0.0009559030370830705
S050,13554.0,13583.984375,N2,-0.03631770833333336,9.62084074814383,-19.05,17.29,36.34,0.1,92.42093081908787,906.25,874.2106119791666,0.4112552241309525,0.43886196735293537,0.2825663638864329,64.61262481828848,0.37550733382705065,65.62011886609167,0.215625,150,0.09495580833333332,0.002989024445912728,-4.751126505839437e-06,35.730000000000004,0.028047578623950506,4.048612209367517e-05,64.548,0.564885829172586,1.500000000000007,-0.000919097471543368
S050,13584.0,13613.984375,N2,-0.04556249999999998,9.494721449982638,-18.79,17.18,35.97,-0.12,111.19734460950063,906.25,986.4501953125,0.4112552241309525,0.41339864235384227,0.085232270476361,64.60769075026498,0.3714331498281606,65.62011886609167,0.215625,145,0.08717317499999999,0.0026870270643175507,-4.045659300580321e-06,35.80233333333334,0.02155355088043598,3.281250890096219e-05,64.04299999999999,0.22161753841547244,0.6700000000000017,-3.149306409859636e-05
S050,13614.0,13643.984375,N2,-0.024333333333333304,9.405573058328532,-18.26,17.72,35.980000000000004,-0.355,88.2080434759294,953.125,1019.3033854166666,0.4268291926780808,0.35910164724706506,0.1242643282035874,64.60707124144372,0.3849942895873589,65.62011886609167,0.23958333333333334,154,0.08036252499999999,0.0020319267332694355,-2.3949257798735296e-06,35.85366666666667,0.01940503943710247,2.8090285397753997e-05,63.333999999999996,0.14393517059194846,0.5,-0.00018694449515638432
S050,13644.0,13673.984375,N2,0.14167708333333337,9.542527661293844,-18.88,18.24,37.12,0.395,78.05348450306562,953.125,993.5139973958334,0.41197356981027583,0.3736070773739289,0.17677362623014653,64.59467551339864,0.3774634446829374,65.62011886609167,0.21666666666666667,155,0.07563349999999999,0.0018514278813931717,-2.1539042301172528e-06,35.89399999999999,0.02091251618847782,3.055556384428286e-05,62.60233333333334,0.8127758335208767,2.1499999999999986,-0.0013647573146585597
S050,13674.0,13703.984375,N2,-0.06009895833333331,9.180006941071664,-18.65,17.2,35.849999999999994,-0.605,66.53158290690756,953.125,990.478515625,0.4007791348493027,0.3570714214271425,0.17399263633843817,64.57347488048052,0.3661286567366769,65.39113089708727,0.20104166666666667,145,0.070989875,0.0019490281576660191,-2.2537043873981072e-06,35.934,0.013063945294845659,-1.1111114125195452e-06,60.87433333333333,0.3653097620133114,1.1099999999999994,-0.0005160070844203242
S050,13704.0,13733.984375,N2,-0.007473958333333323,9.122816418210085,-17.5,16.94,34.44,-0.26,85.42402553648198,859.375,923.6572265625,0.44385146531682074,0.3271413828530412,0.1682735042192389,64.62561074941713,0.4021010629424463,65.62011886609167,0.26979166666666665,184,0.06679460000000001,0.0014580658901435142,-1.0814000329318667e-06,35.93533333333333,0.015434449203721648,1.7083337967486827e-05,60.32,0.25412595302329966,0.6200000000000045,0.0004206945585651484
S050,13734.0,13763.984375,N2,-0.029036458333333327,9.132045348588168,-18.13,17.54,35.67,-0.14500000000000002,22.47790888678257,1031.25,1044.9055989583333,0.4330127018922193,0.3432746081451732,0.17950549357115014,64.61358568785344,0.3928564942655988,65.62011886609167,0.25,153,0.064115175,0.0016033480421839181,-1.239023122564867e-06,35.965333333333334,0.01334998959633314,9.23611361656633e-06,61.05366666666667,0.19032399276555273,0.6499999999999986,0.00032753481107172534
S050,13764.0,13793.984375,N2,0.06759895833333338,8.541037524529182,-17.08,17.17,34.25,-0.135,114.77196973864834,1015.625,1006.201171875,0.4268291926780808,0.3247177593909654,0.27638539919628335,64.60503013078201,0.3919482968632592,65.62011886609167,0.23958333333333334,162,0.061329,0.0016565178689045281,-1.4655889392331105e-06,35.96866666666667,0.016275407487644746,-1.7777782600310287e-05,61.42733333333334,0.1094511560265841,0.30000000000000426,-4.166667796947155e-06
S050,13794.0,13823.984375,N2,-0.004442708333333297,8.353126055421367,-16.1,16.48,32.58,-0.395,73.5577980050547,1031.25,1005.7291666666666,0.46393241957267395,0.26339134382131846,0.28855482821967976,64.65715959122939,0.42407380760132796,65.39113089708727,0.31354166666666666,177,0.059919900000000005,0.0015132918555255624,-1.1147594169811783e-06,35.946,0.013063945294843917,8.888891300154537e-06,60.646,0.25039435563393503,0.8900000000000006,-0.00037243065658383714
S050,13824.0,13853.984375,N2,-0.08678125,8.323974226973261,-16.17,16.24,32.41,-0.595,197.32787238116856,984.375,937.8255208333334,0.4525966747557918,0.3094837070518504,0.2732186624299299,64.64397195448504,0.4128336401253766,65.62011886609167,0.2875,167,0.057688825000000006,0.0016175002919242387,-1.44362734473398e-06,35.944,0.014742229591664205,1.5972226554966246e-06,60.55933333333334,0.23723312491209095,0.6700000000000017,-0.0003012500817193155
S050,13854.0,13883.984375,N2,0.11021875000000003,8.37176702238831,-16.44,15.93,32.370000000000005,-0.48,106.86257956340691,781.25,842.9117838541666,0.4717715118306743,0.26339134382131846,0.21578094200034337,64.67003485453509,0.42711268600893015,65.62011886609167,0.334375,165,0.05626905,0.0014528984814845118,-4.325600131727463e-07,35.956,0.013808210118137963,1.020833610252019e-05,60.098,0.1615631971293795,0.44999999999999574,-0.00024645840018945386
S050,13884.0,13913.984375,N2,-0.04784895833333335,8.369219971126526,-15.84,16.18,32.019999999999996,-0.37,24.77488893034283,984.375,979.345703125,0.48274816408822896,0.2599996661322643,0.2068462551362458,64.70113703228814,0.43821615184556517,65.62011886609167,0.3697916666666667,181,0.056247700000000005,0.0014847079207709508,-2.563112674455478e-07,35.96400000000001,0.010519822558704825,4.09722333366464e-06,59.65099999999999,0.2598890789035461,0.7900000000000063,0.00021225700202284197
S050,13914.0,13943.984375,N2,-0.006317708333333272,8.118868650217104,-15.72,15.76,31.48,-0.45999999999999996,131.75391288349977,1015.625,979.5572916666666,0.48924966466518915,0.26999871398870695,0.1592592172022985,64.72564748747052,0.4389084882221606,65.62011886609167,0.396875,187,0.055351000000000004,0.0015156996404301216,-1.0791760739952456e-06,35.97733333333334,0.010934146311238933,-1.7361115820617157e-06,60.41899999999999,0.3054543064573382,0.75,0.0005301737549299472
S050,13944.0,13973.984375,N2,0.006359374999999997,8.079991918442717,-15.12,15.38,30.5,-0.38,140.81638076144586,890.625,982.8450520833334,0.4963364044565831,0.2599996661322643,0.17399263633843817,64.76324945087225,0.4456499718702608,65.62011886609167,0.4395833333333333,205,0.05460374999999999,0.0015028640948202864,-5.231863398400447e-07,35.963333333333345,0.010749676997729848,-4.583334576641422e-06,60.75466666666667,0.054938349285560024,0.20000000000000284,7.277779752001994e-05
S050,13974.0,14003.984375,N2,-0.07788020833333341,8.257673132218702,-16.47,16.49,32.959999999999994,-0.495,165.30032453787828,1062.5,1001.416015625,0.49304956471321304,0.26999871398870695,0.20497289793748072,64.72605383597782,0.4418670487460588,65.49045732013177,0.396875,180,0.05357894999999999,0.0014147496589503028,-8.117450118665959e-08,35.964000000000006,0.01280624847486474,7.569446497786739e-06,60.924,0.13502098602316118,0.5,8.604169000696966e-05
S050,14004.0,14033.984375,N2,0.08057291666666666,7.72281149453357,-15.25,16.03,31.28,-0.24,107.52946001468783,1000.0,917.8385416666666,0.43361244016274364,0.26339134382131846,0.39361218928731806,64.61445752388752,0.40311771696809645,65.62011886609167,0.25104166666666666,162,0.0525328,0.0012331357832777382,-2.835547644191531e-07,35.943333333333335,0.02022100118413852,-2.638889604733629e-05,61.19266666666666,0.2051167689119768,0.5800000000000054,-0.0002382639535221245
S050,14034.0,14063.984375,N2,0.002213541666666637,7.5523689954863364,-14.38,14.73,29.11,-0.72,124.19165443042029,1046.875,936.0677083333334,0.439992897669951,0.30547663122114954,0.4377181995556299,64.64583209897565,0.4079120383748495,65.62011886609167,0.2625,158,0.05190297499999999,0.0015047964062872426,-5.812872670592628e-07,35.926666666666655,0.015563490039906877,-5.069445819619711e-06,61.208333333333336,0.2246491091062285,0.75,-0.0003946876070658656
S050,14064.0,14093.984375,N2,-0.005322916666666703,7.362170118521995,-13.72,15.02,28.740000000000002,-0.645,49.26346458297981,1031.25,1031.396484375,0.4299636107826129,0.2304038573895845,0.4348019484489462,64.61063977090586,0.4013249650488358,65.62011886609167,0.24479166666666666,154,0.051006275000000004,0.0014539569455025133,-8.998693847301928e-07,35.89199999999999,0.013012814197294836,-1.4652781752598348e-05,60.705999999999996,0.19977654183278604,0.7700000000000031,-0.00011722225402079548
S050,14094.0,14123.984375,N2,0.009968750000000023,7.475679212387556,-13.98,14.7,28.68,-0.665,15.186251194338858,1015.625,1016.4469401041666,0.4405535797121869,0.2363252195069329,0.47177151183067423,64.64096417702302,0.41195703436223896,65.62011886609167,0.2635416666666667,174,0.049938775000000005,0.0015554394473508114,4.1004242893946066e-07,35.88133333333334,0.012310790208413747,-1.0416669492369255e-06,60.248666666666665,0.28751502376204374,0.8699999999999974,0.0004998612467071518
S050,14124.0,14153.984375,N2,-0.06815104166666668,7.136975708129909,-13.76,14.92,28.68,-0.36,145.73709854888077,1000.0,944.6614583333334,0.4046120827409878,0.34977516339865466,0.42853412122671813,64.60373543101764,0.3737111528209765,65.39113089708727,0.20625,127,0.049362325000000006,0.0014527023849966651,-2.7994083114714424e-07,35.849000000000004,0.027730849247723285,-3.3854175850199614e-05,61.032666666666664,0.3230266586865889,0.8599999999999994,0.0004917362445031044
S050,14154.0,14183.984375,N2,-0.0074895833333333455,6.912828484501947,-14.84,13.65,28.490000000000002,0.18,39.75939495561861,1062.5,1059.9283854166667,0.4530842893589325,0.254795584597841,0.3984289895605266,64.64781086823251,0.42097103451897017,65.62011886609167,0.28854166666666664,176,0.047771749999999995,0.0016420079437992994,-1.1336630679424567e-06,35.778000000000006,0.013266499161420532,-7.500002034504441e-06,60.69666666666667,0.34479301359253534,1.0499999999999972,-0.0006155557225357323
S050,14184.0,14213.984375,N2,0.1127604166666667,7.471797696511852,-15.08,14.17,29.25,-0.01,28.16338451155551,1000.0,1014.4856770833334,0.4459878528957438,0.2565462379810357,0.4261919050504778,64.64079281573169,0.41481419975334133,65.39113089708727,0.27395833333333336,161,0.046501425,0.0014321617556599543,-2.932845847668686e-07,35.792,0.013999999999999957,1.409722604633966e-05,59.59866666666667,0.3587267607649155,1.0500000000000043,-0.0006115279436653496
S050,14214.0,14243.984375,N2,-0.04014062500000005,7.541034275812212,-14.77,14.62,29.39,-0.305,64.10030087119205,1000.0,1061.1328125,0.4596087840489997,0.22428271082497642,0.40232478717449166,64.65563572102027,0.4279538651854785,65.62011886609167,0.303125,171,0.045679449999999996,0.001468501361082107,-1.1953779284336853e-07,35.80766666666668,0.013085190950927555,1.73611158206487e-07,59.467000000000006,0.06919296688729698,0.21000000000000085,6.781251839532251e-05
S050,14244.0,14273.984375,N2,-0.053197916666666636,7.157199171579783,-15.01,13.86,28.869999999999997,-0.22,125.31349289549108,1000.0,974.12109375,0.4475579959315018,0.3272209768769926,0.4573426793870094,64.66473671875254,0.41577248716491283,65.62011886609167,0.284375,173,0.045487299999999994,0.001466171514523455,-4.987227915372157e-07,35.802,0.021039645117412086,-2.0555561131608707e-05,60.416666666666664,0.43732774386672024,1.4799999999999969,0.000772430765090811
S050,14274.0,14303.984375,N2,0.0505833333333333,7.357237343350349,-15.12,13.87,28.99,0.035,62.79107027165069,828.125,866.796875,0.4559490540954719,0.16232629604869594,0.47761978573151903,64.66000210007175,0.42544496555594447,65.39113089708727,0.2947916666666667,182,0.043800650000000003,0.0015334889231748622,-3.875248447061758e-07,35.755333333333326,0.013597385369581676,5.694445989161585e-06,61.569,0.16367345539213238,0.6200000000000045,0.00023767367558422402
S050,14304.0,14333.984375,N2,-0.047489583333333286,7.869588911455804,-15.54,14.47,30.009999999999998,-0.385,0.0,968.75,968.75,0.44910090543650527,0.16827350421923892,0.48619840486049404,64.65197297818698,0.42388877603440533,65.39113089708727,0.28020833333333334,182,0.044697350000000004,0.0014415598418033152,6.699676296570177e-07,35.79466666666667,0.01606929439092476,2.0069449888631307e-05,61.20233333333332,0.3128118000047666,1.0300000000000011,-0.0005545487615420896
S050,14334.0,14363.984375,N2,-0.02423437500000001,7.788553636404624,-15.5,14.93,30.43,-0.335,54.75008819278793,968.75,986.1979166666666,0.45405077841030067,0.18742764807756854,0.4647643051859728,64.65432852779428,0.430709825033498,65.62011886609167,0.290625,165,0.043918075,0.0015789981378630563,4.809311200442459e-08,35.79866666666667,0.01334998959633437,-4.0972233336653064e-06,60.72433333333333,0.0464530826629281,0.12999999999999545,6.0590294213946216e-05
S050,14364.0,14393.984375,N2,0.041635416666666654,7.858712066633162,-15.08,16.11,31.189999999999998,-0.41000000000000003,53.61277478304469,1000.0,1028.6946614583333,0.4604956097480433,0.16232629604869597,0.4746149298085999,64.66814146400985,0.43567525077979236,65.62011886609167,0.30520833333333336,181,0.04364052500000001,0.0016059046513959032,2.8772468742531636e-07,35.802666666666674,0.013148721948877925,1.5763893165119794e-05,60.85466666666667,0.21760412577788046,0.6000000000000014,0.0003732639901432269
S050,14394.0,14423.984375,N2,-0.020588541666666713,7.825405182366088,-15.75,15.68,31.43,-0.505,37.91580586975896,1109.375,1096.1995442708333,0.4647643051859727,0.1821904480893551,0.46393241957267395,64.67619528719301,0.4368121330023896,65.39113089708727,0.315625,167,0.043939425000000004,0.001551331313541694,-3.0106844104504155e-07,35.794000000000004,0.017435595774161997,-2.208333932382234e-05,60.98833333333334,0.14139974854606038,0.4000000000000057,0.00012072919941655955
S050,14424.0,14453.984375,N2,0.08217708333333335,7.834384930514637,-14.81,16.22,31.03,-0.28500000000000003,129.43205257831326,828.125,927.7425130208334,0.47213591940127664,0.1529193630552463,0.4587107820808469,64.68857330054026,0.4436413799027539,65.39113089708727,0.33541666666666664,195,0.042637075,0.0016217218841018948,-4.484057205961702e-07,35.77266666666666,0.011234866364234344,-2.638889604733501e-06,60.94766666666667,0.2591612539627709,0.6200000000000045,-0.0004340626177470223
S050,14454.0,14483.984375,N2,-0.02352604166666668,8.045426755717406,-15.03,15.23,30.259999999999998,-0.435,0.0,828.125,828.125,0.4732137007708275,0.13928372696486196,0.44111108924573134,64.68450147832341,0.44564765691051755,65.39113089708727,0.3385416666666667,182,0.042786525000000006,0.0014158366428988194,1.8597856607491484e-07,35.81033333333333,0.012242911781471409,1.086805850370462e-05,60.73333333333334,0.10367684837459563,0.3100000000000023,-7.784724333963864e-05
S050,14484.0,14513.984375,N2,-0.06659375000000002,8.32316728209846,-15.53,16.02,31.549999999999997,-0.745,79.30956166406331,968.75,975.5940755208334,0.47920176501889283,0.18257121422581626,0.4422166387140533,64.7067883027246,0.4475461388305543,65.39113089708727,0.3572916666666667,199,0.04249829166666667,0.0016940906577267995,-8.712504533556994e-07,35.82866666666667,0.015216949614017752,1.520833745885928e-05,60.888333333333335,0.1474241801363971,0.490000000000002,0.000246145900104682
S050,14514.0,14543.984375,N2,0.07519270833333333,8.108959664338176,-15.15,15.76,30.91,-0.43,41.52775496897218,968.75,1004.4759114583334,0.4892496646651892,0.12801909579781012,0.4222940305804581,64.73212658465151,0.45838974899911894,65.62011886609167,0.396875,187,0.0422421,0.001429653136253686,2.2628782180116668e-07,35.834666666666664,0.009213516640724222,-3.194445310994014e-06,60.971000000000004,0.08738230179313575,0.29999999999999716,-7.552085381967758e-05
S050,14544.0,14573.984375,N2,0.02406249999999998,8.300675132949152,-16.72,15.16,31.88,-0.405,50.67078663990325,1078.125,1052.2135416666667,0.48246599621113195,0.13928372696486196,0.4168944689773287,64.70626476019055,0.45337708821947664,65.62011886609167,0.36875,180,0.04226345,0.0015791785514944151,-6.004689128876154e-08,35.84633333333334,0.01722078847078456,7.881946582559402e-06,61.14566666666666,0.07027011376743951,0.2700000000000031,3.565973189554417e-05
S050,14574.0,14603.984375,N2,-0.12160416666666668,8.18439131375384,-16.8,15.73,32.53,-0.42,81.43793362846613,937.5,969.0592447916666,0.4851796631718559,0.11987768650679835,0.4098068121247973,64.71231607478,0.4570082834069178,65.39113089708727,0.37916666666666665,190,0.042178049999999995,0.0015441526794653434,2.9801049750718783e-07,35.875,0.019450792614525866,8.993057995078034e-06,61.553000000000004,0.25526652737873723,0.6499999999999986,0.0004357292848657986
S050,14604.0,14633.984375,N2,0.10221354166666667,8.30772959271364,-16.91,16.66,33.57,-0.20500000000000002,75.12229864574589,937.5,973.3968098958334,0.48741875213265595,0.11110243021644485,0.4141054092022411,64.72104180499817,0.46016048904620704,65.39113089708727,0.3885416666666667,191,0.04167631666666667,0.0014527268209780148,-3.744705876927588e-07,35.889333333333326,0.01749920633120915,1.4375003899469374e-05,61.571000000000005,0.11261586625930331,0.46000000000000085,-0.0001639236555782484
S050,14634.0,14663.984375,N2,-0.06015625000000001,8.490141935194758,-15.78,18.01,33.79,-0.655,93.52582195525471,984.375,922.021484375,0.49093231705659346,0.14282613750835504,0.38349181506548774,64.73356224772503,0.4590320104043228,65.62011886609167,0.40520833333333334,183,0.04147348333333333,0.0015366508331613776,-3.4471363517622465e-07,35.907999999999994,0.013999999999999718,2.0138894351911573e-06,61.27033333333333,0.16057154860753584,0.44999999999999574,-0.00022600700575276862
S050,14664.0,14693.984375,N2,0.09653125000000001,8.417309957825408,-16.0,15.88,31.880000000000003,-0.475,118.0754388944501,875.0,890.7633463541666,0.49209793056249373,0.12827311899051785,0.3745309566644659,64.73541501881125,0.4609779556545581,65.62011886609167,0.41041666666666665,197,0.04149485,0.0013735535400922676,-2.563112674455475e-07,35.919999999999995,0.012382783747338595,6.319446158703928e-06,61.293,0.18182684070290606,0.5799999999999983,0.00021913200388780447
S050,14694.0,14723.984375,N2,-0.08026562500000006,8.597870126414644,-17.54,17.79,35.33,-0.39,95.52890377416978,765.625,815.1448567708334,0.4988876515698588,0.16532992583014122,0.3754496725224597,64.79139291555857,0.4614152811795339,65.39113089708727,0.10104166666666667,78,0.04071551666666666,0.0016427842624810952,-2.0292974254821365e-08,35.948,0.014922019523732817,7.986113277483469e-06,61.745999999999995,0.09225327455796212,0.28000000000000114,0.00015756948718790377
S050,14724.0,14753.984375,N2,0.04753124999999998,8.509472353713052,-15.91,17.09,33.0,-0.14500000000000002,153.6223830091661,750.0,887.3697916666666,0.49228421668788036,0.09636964965693295,0.33422894006204795,64.72844865379037,0.45736732898725435,65.39113089708727,0.4125,192,0.04032053333333333,0.0016182186653505414,-5.733113534373245e-07,35.94866666666667,0.012578641509408761,-2.2222228250396583e-06,61.87166666666667,0.14097478103862765,0.38000000000000256,0.00018649310614504897
