participant_id,window_start_time,window_end_time,sleep_stage,BVP_mean,BVP_std,BVP_min,BVP_max,BVP_range,BVP_median,SDNN,median_nni,IBI_mean,x_std,y_std,z_std,mag_mean,mag_std,mag_max,movement_density,burst_count,EDA_mean,EDA_std,EDA_trend,TEMP_mean,TEMP_std,TEMP_slope,HR_mean,HR_std,HR_range,HR_trend
S052,6367.0,6396.984375,W,-0.7976666666666647,160.61989079219677,-643.29,715.62,1358.9099999999999,-4.895,0.0,437.5,437.5,10.665148817787568,35.6549215078981,17.288071633063375,65.25504305556589,3.828372911508885,89.87769467448528,0.08020833333333334,27,0.017877808333333335,0.024867532724182025,-2.4796060762820297e-05,34.47133333333333,0.2116401558200986,0.0002775695197399957,76.35633333333332,0.5292225954695771,1.6700000000000017,0.00021545144733383409
S052,6397.0,6426.984375,W,1.3838125000000003,153.5131348877646,-656.86,769.63,1426.49,1.77,0.0,437.5,437.5,9.628142017367486,27.228444085509334,17.954354620158,65.52356559327951,6.09746001297787,108.32358930537707,0.08854166666666667,38,0.04276200833333333,0.10744682795911163,5.4792401799154136e-05,34.59566666666667,0.1799756156322915,-0.00021260422433925415,79.859,1.649994646455961,5.700000000000003,0.0028932299515055195
S052,6427.0,6456.984375,W,1.3447656250000004,141.1146909581561,-685.07,500.54,1185.6100000000001,-9.605,0.0,437.5,437.5,8.576880601907375,6.7761126053166025,13.904535006608457,65.3675387607919,3.9305800703842495,101.99509792141973,0.07708333333333334,33,0.13833608333333333,0.05651238776521824,9.763340365489466e-05,34.49666666666667,0.027968235951203613,-1.090278073534597e-05,83.54033333333334,0.5737216708087269,2.010000000000005,-0.00042093761418663745
S052,6457.0,6486.984375,W,-5.602609375,250.91903641873358,-1645.31,1667.88,3313.19,1.66,0.0,437.5,437.5,20.3914806387101,9.892168400291325,4.7464898168643765,65.19393463670353,0.9196076619377191,76.50490180374065,0.046875,28,0.21931409166666666,0.02149269842682852,-2.8979579258783435e-05,34.538000000000004,0.07833262411026365,0.00012236114430369497,79.88666666666667,3.740746211950528,11.349999999999994,-0.006292779484803464
S052,6487.0,6516.984375,W,4.388437499999999,100.28016887158078,-386.83,686.19,1073.02,2.55,0.0,437.5,437.5,2.685532225338831,2.537571624262828,3.236291702608867,65.38471971622162,1.2352844332939026,78.6956161421969,0.046875,22,0.23570824166666665,0.01934228668703015,2.867606355144952e-05,34.66466666666666,0.020286832072937643,-7.569446497788318e-06,66.63033333333334,2.1031222556528233,8.299999999999997,-0.0036350357082887657
S052,6517.0,6546.984375,W,0.011276041666667543,187.92726380029447,-619.65,1204.81,1824.46,-5.699999999999999,0.0,437.5,437.5,7.599612720281467,3.0714493318731284,5.172769308379055,65.36892583520827,1.3190881260830463,80.85790004693419,0.059375,25,0.2271589333333333,0.006880970539264226,7.0585175397454284e-06,34.672999999999995,0.026975297341580804,2.9965285906382904e-05,60.40533333333334,0.8005195535123145,3.1799999999999997,-0.00011555558690201404
S052,6547.0,6576.984375,W,-1.668875,119.4080842177232,-528.24,458.71,986.95,-1.17,0.0,437.5,437.5,3.279592670073103,0.5939363742579391,2.693923202732814,65.37900293840725,0.3284049021213751,66.46051459325304,0.13958333333333334,90,0.2507148666666667,0.006174009449476267,7.5896327011807484e-06,34.78433333333333,0.07195754921402564,0.0001160764203766336,69.05066666666667,4.576839472338478,16.85,0.008192710555748306
S052,6577.0,6606.984375,W,1.383744791666666,123.32251452909408,-530.93,535.36,1066.29,1.97,0.0,437.5,437.5,7.743598876989196,3.0924202739992612,3.0240125153028603,65.3304019507739,0.728895934718758,70.43436661176133,0.065625,48,0.25788725833333337,0.028353725858781424,2.704786562713368e-05,34.968333333333334,0.08402711202674773,8.510418975265681e-05,84.27700000000002,2.323316810079934,7.859999999999999,0.00417246640963173
S052,6607.0,6636.984375,W,-2.8289270833333333,144.8994642570284,-1322.12,1331.79,2653.91,-1.8,270.47208694700225,437.5,670.7763671875,2.2711926321257345,1.0515345103176066,2.730021335641089,65.35467716207027,0.3920115324447262,70.97182539571601,0.08541666666666667,56,0.2777394916666667,0.016539590466008038,-2.1012873538648413e-05,35.165,0.041452784385771775,6.954862997738342e-05,80.47800000000001,5.521816367826804,18.289999999999992,-0.00987146101113851
S052,6637.0,6666.984375,W,1.1227083333333305,341.98696858085583,-1565.87,1673.66,3239.5299999999997,14.74,0.0,984.375,984.375,13.096961453159873,8.24800454613451,15.628227965178818,65.273417490752,3.295946107669095,78.70832230456955,0.12291666666666666,69,0.20332558333333334,0.03966360268822945,-3.487431371373527e-05,35.247,0.04576388678131873,-4.0590288788598045e-05,67.84566666666666,0.5733566855709368,2.0799999999999983,0.00028635424434522575
S052,6667.0,6696.984375,W,5.9694843749999995,273.7584789040689,-1086.23,1255.11,2341.34,2.185,0.0,984.375,984.375,12.923680849228223,6.976448164578847,9.663286046797031,65.17123333281184,1.757997216587186,78.41555968046137,0.07291666666666667,30,0.21122380833333335,0.007105395255597249,-3.409369631447926e-06,35.17166666666666,0.04058598553961901,-5.565973732089105e-05,73.06333333333332,2.4223464290274865,8.349999999999994,0.004356806737415019
S052,6697.0,6726.984375,W,-3.397046875,167.55494094872626,-988.56,906.53,1895.09,0.495,0.0,984.375,984.375,14.32250544864232,4.566464102677439,5.966020318227218,64.72069574531045,1.2538609344558507,73.45747068882783,0.05416666666666667,24,0.2309052583333333,0.0187379160956672,2.7897714381975468e-05,35.339666666666666,0.10097799540273869,0.00015947920992817063,79.27933333333334,0.4072422156680502,1.8100000000000023,0.00017069449074828927
S052,6727.0,6756.984375,W,-0.8161822916666669,112.4773639183407,-707.0,366.84,1073.84,3.9850000000000003,0.0,984.375,984.375,5.902477024609386,2.0052012986889594,1.3969445203928306,64.59102359376544,0.802135343714443,70.55494312945054,0.03958333333333333,22,0.21868437500000001,0.03977798474807023,-6.144595829154684e-05,35.40366666666667,0.08300535457962314,-0.00010434030608189772,83.383,2.8740750976038654,8.929999999999993,0.005158994455022369
S052,6757.0,6786.984375,W,0.05498958333333359,59.30063163484482,-196.88,143.61,340.49,5.494999999999999,310.5161639688625,359.375,636.71875,1.365354028544937,0.539273559728476,0.4635639039609917,64.46144753438475,0.3706841941111456,65.58200972827838,0.07395833333333333,60,0.18140265,0.007654247028774285,1.2317480337858163e-05,35.40133333333332,0.02045048220023749,2.8472229945803978e-06,87.89633333333335,1.3633940084297784,4.799999999999997,-0.00226621589252818
S052,6787.0,6816.984375,W,0.10656770833333314,35.5785695846267,-139.17,170.36,309.53,1.92,270.13902138448265,359.375,530.2083333333334,0.4470388685561916,0.6993765825123591,0.47968156212394353,64.59710998142616,0.34436954114259505,65.58963332722634,0.042708333333333334,31,0.14321377500000002,0.011289875286041695,-1.0657713611575955e-05,35.376333333333335,0.02228352655114338,-3.923612175458869e-06,79.44666666666667,3.839509806675268,12.590000000000003,-0.006693404593479978
S052,6817.0,6846.984375,W,1.4922604166666664,80.11538950616074,-276.09,943.45,1219.54,-0.505,82.20402964344136,765.625,821.5901692708334,11.253332405753197,3.3299924664162366,4.814150149991862,64.50671124996369,0.8227466482110333,71.26008700527947,0.06875,29,0.18652585833333335,0.02138378314490361,1.339664143789102e-05,35.34766666666666,0.03333499995833407,-3.0451397149358427e-05,67.96633333333334,0.8770537168396378,3.5400000000000063,-0.0012068406051542438
S052,6847.0,6876.984375,W,-1.5982083333333326,50.510839172134766,-316.69,397.82,714.51,2.2,31.50504305499736,890.625,907.2021484375,0.5489533918183664,0.42597799035148387,0.28103965899950056,65.12840040032322,0.3561993288095339,66.40030120413611,0.20208333333333334,119,0.2657000916666667,0.006789104809663587,1.1926256490412458e-05,35.396666666666654,0.02879043050891812,4.14583445796277e-05,64.70700000000001,1.235559657267372,3.8699999999999974,-0.0017823963168392787
S052,6877.0,6906.984375,W,-0.05022916666666671,17.86335468417068,-70.16,51.38,121.53999999999999,1.9,20.776289090404365,906.25,911.4583333333334,0.425,0.4769138618212121,0.12426432820358738,65.28955946752255,0.3629846693317311,66.2872536767062,0.18854166666666666,141,0.28474119166666667,0.00469719112395169,8.139557546537958e-06,35.45533333333333,0.015434449203719848,1.9861116498782977e-05,64.50399999999999,0.5431918016072512,2.019999999999996,0.0007813196563909619
S052,6907.0,6936.984375,W,-0.8129999999999998,58.02499534198602,-378.98,372.27,751.25,-0.485,28.523868663989457,906.25,895.9798177083334,9.558498391120622,3.1841347635909405,3.499116331899622,65.36770535181678,1.4243321375520537,80.31811750782012,0.040625,14,0.27705642499999994,0.040872749012567954,-3.147661856462092e-05,35.49066666666668,0.012092238098145091,7.430557571223893e-06,66.11,0.39809546593750633,1.25,-0.0005270834763138778
S052,6937.0,6966.984375,W,0.5665833333333306,184.37398909890476,-1216.3,1134.41,2350.71,-3.9000000000000004,49.74075236120083,906.25,880.7779947916666,26.23427188782595,9.560116578423903,9.3964310023326,64.97359868305696,3.2914369971778363,78.8416133777081,0.078125,28,0.196174425,0.0672300005453496,-4.705041423893649e-06,35.54066666666667,0.021437246921084178,-1.2222225537713225e-05,67.407,1.490438749719917,4.25,0.002334896466714538
S052,6967.0,6996.984375,W,0.8501562500000001,241.8862818313696,-1565.2,2043.69,3608.8900000000003,1.81,0.0,890.625,890.625,20.776719718190932,20.094019864914966,9.129450731545806,64.51627919314087,2.3317845253577163,92.89241088485109,0.04583333333333333,15,0.24456705000000004,0.019428257102671355,-4.300430854066528e-06,35.441,0.018681541692270466,-1.1423614209965553e-05,67.98499999999999,0.26053470658116445,0.9000000000000057,-0.00030864591705889684
S052,6997.0,7026.984375,W,-0.726942708333333,208.58206033856325,-1538.74,1190.31,2729.05,2.26,30.868297204548707,796.875,812.255859375,10.280790843766052,18.981650496085834,7.865817990834174,64.4090682660645,3.4285942353647774,88.1873006730561,0.08541666666666667,28,0.265625375,0.046686934351247655,-2.7631862313330692e-05,35.452666666666666,0.013399834161493858,1.944444971909427e-06,66.00566666666667,1.7625808413296165,5.179999999999993,-0.003081702224854117
S052,7027.0,7056.984375,W,-0.7354322916666666,102.48406566856605,-428.67,373.08,801.75,2.355,58.0653255501939,890.625,870.3125,2.8877613442937458,2.3591126141812073,2.771473727687832,63.921253272586846,2.105658264883121,78.16009211867653,0.03333333333333333,7,0.2900671083333333,0.016595949209970803,2.1327237339202834e-05,35.32033333333334,0.01905838981189651,1.309028132874418e-05,67.70266666666666,1.5925303415912972,5.119999999999997,0.002413611765845209
S052,7057.0,7086.984375,W,1.1132708333333339,49.16626660108686,-234.03,331.81,565.84,2.58,66.3137227619909,921.875,906.6975911458334,1.0057123088954856,0.8123337169589437,0.33008672839708186,63.78559087453546,0.2803660459329765,65.02307282803544,0.14895833333333333,80,0.2978908583333333,0.0020754890078237536,-2.1461297054388276e-06,35.281333333333336,0.02513076909996151,-3.8958343901461164e-05,67.068,0.3467025622441625,1.25,-8.493057859444924e-05
S052,7087.0,7116.984375,W,0.012812499999999952,24.812192632568312,-50.06,41.9,91.96000000000001,5.285,40.10371418487131,937.5,943.1803385416666,0.0,0.18483053424390922,0.40232478717449166,63.830834718773396,0.310506207074678,64.45153217728807,0.18958333333333333,126,0.29775199166666666,0.0015328614119560495,1.7138591888723956e-06,35.19266666666667,0.026574841903993163,-3.930556621787292e-05,63.815333333333335,1.3410785046206495,4.450000000000003,-0.0019338894134899665
S052,7117.0,7146.984375,N1,-0.06789583333333328,21.66238623622713,-44.61,40.34,84.95,4.875,48.80818209814394,953.125,956.5511067708334,0.0,0.18521758975744054,0.38863520991913336,63.81848923036367,0.2965339001792131,64.45153217728807,0.17083333333333334,122,0.301167325,0.0017365336553149965,2.349541652978961e-06,35.11833333333334,0.021615323782496757,-3.420139816661046e-05,64.22800000000001,0.33522529737476714,1.250000000000007,-0.00013145836899369857
S052,7147.0,7176.984375,N1,-0.30911979166666653,40.23832839840827,-200.23,293.56,493.78999999999996,3.25,50.804234055372966,953.125,942.4235026041666,0.3384759551611048,0.2975522246411357,0.4923007475534307,63.875975147345216,0.34822020198304626,64.73020933072904,0.23229166666666667,140,0.30516965833333337,0.0015576619845986764,1.755660849517375e-06,35.05166666666666,0.020989415321908674,-3.177084195172647e-05,63.01533333333334,0.11910033118715073,0.480000000000004,-0.00012055558825835182
S052,7177.0,7206.984375,N1,0.2738229166666665,20.8566794074738,-50.74,57.12,107.86,4.630000000000001,57.35595794921514,968.75,954.4921875,0.3984289895605266,0.46876273130858953,0.3476343040826092,63.8528710689367,0.3452384495953614,64.45153217728807,0.10416666666666667,77,0.310090125,0.0019827349569155766,2.830805238391183e-06,35.00933333333333,0.018427033281446507,-2.270833949336414e-05,63.525,0.14068285846778444,0.5700000000000003,0.00017454865846046433
S052,7207.0,7236.984375,N1,-0.03785937500000003,22.047445882663474,-55.58,122.73,178.31,2.7350000000000003,43.65812979670942,953.125,942.4967447916666,0.22838645595544604,0.48101883878273305,0.2870750936166354,63.813347799016626,0.29821862517953807,64.45153217728807,0.026041666666666668,25,0.3146264083333334,0.0016170636376667024,2.093985160043709e-06,34.96866666666667,0.014544949486180491,-1.2500003390843777e-05,63.96366666666667,0.404314096821875,1.1999999999999957,0.0006157293336939373
S052,7237.0,7266.984375,W,0.22361458333333342,22.582175485172385,-65.82,98.97,164.79,2.3,41.073221607835414,921.875,943.0908203125,0.1899835519196333,0.4691479792015403,0.2689659177861678,63.83514222496692,0.2861971084952354,64.73020933072904,0.019791666666666666,17,0.3188422916666667,0.0018510189328936027,2.395370658466441e-06,34.94266666666667,0.016719914938646614,-1.576389316511856e-05,64.85833333333332,0.19602862602748108,0.519999999999996,0.000298784803272785
S052,7267.0,7296.984375,W,-0.02604166666666655,22.53560112074368,-67.15,115.72,182.87,0.83,133.71252241949614,703.125,812.939453125,0.08507936450096985,0.376103699869538,0.31340840191176894,63.88296057205589,0.27320361603861604,64.45153217728807,0.003125,3,0.3218521583333333,0.001664883329224777,1.3920956467273365e-06,34.922666666666665,0.015040685563572626,-1.0347225029087725e-05,64.98766666666667,0.09583608691696137,0.28000000000000114,8.0868077492426e-05
S052,7297.0,7326.984375,W,-0.3600677083333336,48.7658330906657,-392.16,183.11,575.27,3.225,0.0,1015.625,1015.625,0.2621939353269297,0.37562303567613575,0.34003676271838607,63.90027007258747,0.310015564739008,65.71149062378664,0.027083333333333334,20,0.32644149166666664,0.0019392558710144142,2.5055442994640507e-06,34.89733333333332,0.015040685563570633,-1.298611463381977e-05,65.51,0.4986983055916668,1.8799999999999955,0.0008563891211993044
S052,7327.0,7356.984375,W,0.2804687500000004,66.2148980198586,-423.3,470.56,893.86,0.345,94.56029888761704,796.875,843.7662760416666,2.5962210033554327,0.6590507364868725,1.5440068808991392,64.02455260729123,0.8109901989942829,69.89992846920518,0.022916666666666665,11,0.32807449166666663,0.004499916449216648,3.776746033188485e-06,34.889333333333326,0.012092238098144567,-4.930556893054423e-06,66.71533333333333,0.5207221481323375,1.4500000000000028,-0.0008397224500115152
S052,7357.0,7386.984375,W,-0.5915468749999995,84.1149851855389,-538.12,434.6,972.72,2.9050000000000002,40.42752516610824,921.875,918.26171875,2.455789423527256,1.384882415786826,0.6144517867692215,63.91429981607386,0.446966465208232,66.37017402418047,0.10416666666666667,64,0.32401872500000006,0.007475557756183926,-8.231298456840942e-06,34.90133333333332,0.013349989596332728,5.347223672748734e-06,65.52900000000001,0.5777678311109644,1.9000000000000057,-0.001008993329262515
S052,7387.0,7416.984375,W,0.6717395833333332,252.41456164267845,-1831.79,1530.74,3362.5299999999997,6.555,0.0,921.875,921.875,20.47553916245078,34.835989170584135,12.868965009536186,64.86193775218199,5.686595146957644,130.85870242364473,0.0875,33,0.118142275,0.09872607412043036,-3.840337652001319e-05,34.92733333333332,0.17813727540548305,0.00012326392232637036,64.415,0.6507726177398689,1.7800000000000082,0.0009842711003339596
S052,7417.0,7446.984375,W,0.0022083333333336934,118.73198550209247,-563.83,875.31,1439.1399999999999,-6.075,0.0,921.875,921.875,5.935231657348252,2.8725289425942546,6.3595106455639865,65.26343694243496,1.1041807494608868,72.0832851637604,0.09583333333333334,45,0.22870653333333335,0.04478706313842821,-1.2911364179515018e-05,35.14866666666665,0.06917289128617439,-9.902780464078935e-05,65.11933333333333,0.5781979668667887,1.8500000000000085,-9.805558215483334e-05
S052,7447.0,7476.984375,N1,-1.145697916666665,245.52622174719016,-1501.81,1096.55,2598.3599999999997,-4.6899999999999995,0.0,921.875,921.875,9.587958802219353,13.809756514870202,10.268016379674503,65.0005269973649,2.3307792112303085,77.69813382572325,0.09270833333333334,38,0.24442830000000002,0.02761139502349226,3.6469801559733494e-06,35.08466666666667,0.024184476196289637,-4.16666779694829e-06,64.967,1.247579389591434,3.8400000000000034,-0.0021420491921791433
S052,7477.0,7506.984375,N2,0.9151822916666666,61.15867668297445,-163.82,152.65,316.47,3.86,75.79266570322177,781.25,782.4951171875,0.5419620588785611,0.795928768274314,1.6128872139522203,64.79140404005548,0.43421866797417374,67.00746227100382,0.165625,99,0.27985285,0.00883500240016002,1.5587442162392073e-05,35.16499999999999,0.031806707887907563,5.1770847377074495e-05,65.36466666666666,1.8348437414547205,5.159999999999997,0.0031484036318369228
S052,7507.0,7536.984375,N1,0.07696874999999999,85.23278796600141,-423.78,375.76,799.54,10.52,72.98385385744523,796.875,845.9065755208334,0.31290945397812586,0.47862174631086984,0.5193771309623352,64.57562274378112,0.3102239828336804,65.60487786742691,0.10520833333333333,79,0.3015835833333334,0.004971316367561904,8.56475319139355e-06,35.23466666666666,0.0160692943909256,2.215278378710538e-05,70.57,1.840534342702321,5.72999999999999,0.0032900008924698597
S052,7537.0,7566.984375,N1,-0.5667395833333337,103.56056271772256,-852.05,356.18,1208.23,17.535,100.79080567577634,921.875,890.7063802083334,0.7457162093789806,0.7226224185023755,1.2127773880871773,64.94912777685336,0.6498148654117202,71.5122367151245,0.0125,7,0.320165725,0.006810330926813208,1.175623213873486e-05,35.260666666666665,0.011234866364236902,1.1388891978325342e-05,70.80766666666665,1.4183245593148117,4.959999999999994,-0.002543993745658025
S052,7567.0,7596.984375,N1,0.43374999999999925,78.72848391386056,-193.18,143.66,336.84000000000003,19.18,71.11117483631232,968.75,937.8011067708334,0.3426671707802712,0.4494595520053934,0.5361740751741816,64.97157654028777,0.3086803139068211,66.19667665374146,0.0375,25,0.3292059833333333,0.00553344244869824,9.185048932576213e-06,35.266,0.012000000000000455,5.000001356337042e-06,66.72333333333333,0.366108666321292,1.4799999999999898,-0.0002994445256739723
S052,7597.0,7626.984375,N2,0.45560937499999987,84.35808839803288,-244.15,209.55,453.70000000000005,20.835,60.969365040196855,984.375,985.0179036458334,0.25852647349933044,0.3151949765841595,0.36683234893098265,65.00585795264959,0.2579861235447904,67.23094525588644,0.007291666666666667,4,0.34110673333333336,0.0036383487846671446,4.943381115283506e-06,35.28466666666667,0.013597385369580144,9.166669153285115e-06,65.82733333333334,0.561978251852823,1.480000000000004,-0.000977986376406893
S052,7627.0,7656.984375,N2,-0.19609374999999987,82.73441295388845,-318.63,481.73,800.36,14.19,51.79394498413745,953.125,967.67578125,0.2865454413012979,0.5064675030021395,3.9895430807368855,64.80444586201965,0.3686188409423789,68.15423684555495,0.017708333333333333,8,0.3486953583333333,0.0024090291052477003,3.1015718048968583e-06,35.29066666666667,0.014126413400277845,5.347223672749597e-06,63.565000000000005,0.8747980719381286,2.5800000000000054,-0.0014756601225206503
S052,7657.0,7686.984375,N2,0.350817708333333,79.07438102566323,-282.43,228.07,510.5,18.395,46.03536755493507,1015.625,1018.5546875,0.48051892522563566,0.32837292221141906,2.0406967828109592,64.73745958621052,0.46421222563068126,68.62215385719105,0.04479166666666667,20,0.35468308333333337,0.0027378858862978405,2.821616650829182e-06,35.290666666666674,0.013148721948877168,-5.06944581962018e-06,61.71366666666666,0.5048331957741643,1.6299999999999955,-0.000907465523943556
S052,7687.0,7716.984375,N1,-0.5346562499999997,90.41627148216189,-855.87,359.28,1215.15,7.88,59.322970163948064,968.75,973.583984375,1.5315939948075519,0.7784191768774428,6.324879225900066,64.86318200446944,0.8334888052081049,74.60562981437795,0.03125,15,0.3071444,0.04380644770434294,-7.058940543332394e-05,35.29200000000001,0.0119443152447794,5.486112599314812e-06,59.910999999999994,0.9677546176588359,2.469999999999999,-0.0016418407231555778
S052,7717.0,7746.984375,N1,-0.09995833333333408,177.3826353503985,-1663.53,1016.92,2680.45,1.6749999999999998,71.98155148461714,875.0,908.1787109375,0.3619907821877359,0.48812282152024905,1.055774773928554,64.96098471304127,0.3717168887087469,68.21290200541243,0.027083333333333334,12,0.2667033,0.004351954096724824,5.066849898776552e-06,35.29066666666667,0.014126413400277843,4.236112260230101e-06,59.04866666666666,0.49969813109738787,1.5,0.0008676391242510644
S052,7747.0,7776.984375,N1,-0.575614583333333,83.66450916854741,-356.49,583.08,939.57,1.98,54.10160595662208,906.25,916.0563151041666,0.06451609403000842,0.43886196735293537,0.3782139472977637,64.96004193456017,0.10324821314311472,66.1362230551458,0.059375,34,0.278337075,0.008732300659202495,9.520407747506442e-06,35.294000000000004,0.012000000000000455,9.861113786110646e-06,60.32633333333333,0.33541499999585933,1.009999999999998,0.0005737848778713323
S052,7777.0,7806.984375,N2,1.0210729166666666,100.95879817712611,-622.8,577.57,1200.37,2.5599999999999996,64.65325620888292,984.375,1006.640625,0.5223104055274241,0.5233843774867781,0.9767029065730958,64.83337115480248,0.5387343534855871,71.05631569396206,0.04791666666666667,33,0.282521225,0.003848038414704515,-7.899561604698812e-07,35.29866666666667,0.012310790208413696,5.486112599314713e-06,62.52833333333334,0.6815867923863806,2.1700000000000017,0.000916007192927298
S052,7807.0,7836.984375,N1,-0.2928385416666663,106.83518257360929,-930.75,645.91,1576.6599999999999,2.4299999999999997,43.44647721087579,1000.0,1002.5797526041666,0.8190017636665314,0.6134735743199449,1.93217907353905,64.8086082430499,0.8566685077775477,75.4254598925323,0.03125,19,0.28090946666666666,0.005345585231343292,4.028549703925144e-06,35.309999999999995,0.015491933384829033,1.2638892317407386e-05,64.24666666666667,0.2395180345796302,0.7800000000000011,-0.00026465284956945915
S052,7837.0,7866.984375,N2,0.25848437499999993,123.04224269468716,-806.34,620.18,1426.52,6.205,39.380479831614835,1078.125,1048.1526692708333,1.2621247895414305,0.6034478482483433,4.104503872568591,64.98932137484857,1.0209181668077165,74.65922581972036,0.04479166666666667,23,0.30860655833333334,0.01326288012323356,4.656634292706787e-06,35.31933333333333,0.013888444437332753,6.111112768855921e-06,61.089666666666666,1.3232648596894308,3.9100000000000037,-0.00206802139432004
S052,7867.0,7896.984375,N2,-0.157390625,56.42867613480383,-348.03,408.8,756.8299999999999,3.135,136.2730770710766,1046.875,1016.1051432291666,0.820629733632789,0.5241715934453145,1.741830821111798,64.97337093760328,0.7641895519265015,78.70196947980399,0.020833333333333332,14,0.3063332416666667,0.005779405363004959,1.068095992864582e-06,35.31933333333333,0.009977753031395193,-1.3888892656489386e-07,59.24666666666667,0.8840412257858163,2.480000000000004,0.0013134031340611802
S052,7897.0,7926.984375,W,-3.489104166666668,101.31484582946115,-900.7,465.93,1366.63,4.005,61.17606077114184,1031.25,1011.1897786458334,1.406161648459103,0.4758718241875175,4.05041136778277,64.85758824034747,0.610257578575112,69.05794668247819,0.09375,61,0.326932575,0.006852441425825909,-1.3748419528108363e-07,35.32333333333333,0.012202003478481601,-1.0138891639238681e-05,59.72533333333333,0.2112618175524281,0.8800000000000026,-6.305557266047394e-05
S052,7927.0,7956.984375,N1,3.5041093749999987,52.64180011959875,-315.28,414.75,730.03,1.77,97.2138249464427,953.125,971.2972005208334,0.6019851058857962,0.22416656985747602,1.46186736970124,65.03745760732903,0.32103941847397877,67.21606950722423,0.03229166666666667,18,0.3295688416666666,0.005897123295861906,1.0122272928133926e-05,35.332,0.012489995996796852,1.131944751504149e-05,57.649,1.6808358039975237,4.520000000000003,-0.0026984382319982184
S052,7957.0,7986.984375,N1,-0.24546875000000082,104.687824332279,-721.73,409.15,1130.88,3.415,26.762830228201963,1062.5,1063.3870442708333,1.4970442522035063,0.612881648387807,3.30855307309706,65.00942069555823,0.7577461060664727,72.71863585079137,0.042708333333333334,20,0.34146955833333337,0.003705865150442457,4.822286247364977e-06,35.33933333333334,0.011234866364235074,7.291668644659074e-06,56.28366666666667,0.4263917082787716,1.6799999999999997,-0.0005896182154997334
S052,7987.0,8016.984375,N2,0.03574999999999922,148.05497467494973,-1102.38,737.31,1839.69,-1.455,34.58338967284244,1062.5,1053.8004557291667,2.431936091068527,0.78708584237292,5.4164963915544355,65.10727625748208,1.1396614988269822,78.31347265956222,0.035416666666666666,21,0.3366771833333333,0.0032818839355450756,-1.2763953115221543e-06,35.34966666666667,0.0181628436344319,1.003472494431459e-05,57.588666666666676,1.9229243932672504,4.869999999999997,0.0027422924105610924
S052,8017.0,8046.984375,N2,-0.0857916666666668,88.34519881548893,-743.16,709.59,1452.75,1.72,10.014723296960042,1062.5,1054.0445963541667,1.1834245673456427,0.5700724856444914,3.215278602711677,65.17806988920208,1.1732421680774447,83.86894538504703,0.027083333333333334,12,0.3345638,0.002464643387321306,8.888800154296846e-07,35.379666666666665,0.017413277182144773,1.197916991622424e-05,59.43299999999999,1.3445969656369152,4.109999999999999,0.002275729783997879
S052,8047.0,8076.984375,N2,0.6983697916666664,192.96663506344044,-999.94,1129.19,2129.13,4.57,76.50114918692663,953.125,991.2679036458334,46.79531856064994,19.936913278331435,26.294205317710794,64.61376644469777,1.861825492193696,76.69419795525604,0.06458333333333334,29,0.29941686666666667,0.07027221943863893,-6.861985151363158e-05,35.37266666666666,0.03140417523550244,-4.4027789721077686e-05,60.29900000000001,1.3644274745596892,3.759999999999998,-0.0018446185559403622
S052,8077.0,8106.984375,N2,-0.2461302083333327,118.6773088470621,-954.38,798.64,1753.02,3.7649999999999997,127.9348474291873,1078.125,992.0654296875,1.9959583729098382,0.33226390949899387,1.2002603884157803,63.81364147632835,1.1116780996739408,84.78797084492588,0.009375,4,0.2282583333333333,0.008726261994055007,-7.911572892679279e-06,35.38066666666667,0.02143724692108341,4.930556893054077e-06,59.20433333333334,0.9785727134738406,2.759999999999998,-0.0015460073638257819
S052,8107.0,8136.984375,N2,-0.261890625,131.1272674105617,-1372.03,687.99,2060.02,3.62,69.56863826826928,1031.25,1080.2734375,1.7310578889599721,0.7096770343300927,0.9684873075732875,63.831914622802294,0.7536083779248428,69.74955196988724,0.042708333333333334,18,0.22096844999999998,0.011615635474688128,-8.545519245203787e-06,35.37566666666666,0.015423647068346062,2.2569450566796227e-06,56.672,0.6841023315265043,2.1999999999999957,-0.001190069767271529
S052,8137.0,8166.984375,N2,0.015182291666666596,91.03856417330846,-869.71,664.27,1533.98,3.435,76.0697469728698,1031.25,1002.7913411458334,1.1039524163205587,0.24258983158592795,0.3756418118811234,63.64686801821501,0.4485437235349778,68.48357467305573,0.035416666666666666,12,0.217766525,0.0052664247849980445,8.955696222790865e-06,35.37866666666665,0.017461067804944518,1.7638893673744527e-05,55.52733333333334,0.5745777193344302,1.7700000000000031,0.0007098613036733137
S052,8167.0,8196.984375,W,0.18967187500000032,62.38415203354469,-416.78,451.95,868.73,6.045,69.55185059965589,1000.0,1028.6376953125,1.722915092200006,0.6496184443686069,0.2899334663859203,63.73527163829197,0.8462806034660851,72.09022125087424,0.03229166666666667,12,0.23017956666666664,0.00364970971159199,5.451804864313385e-06,35.39933333333332,0.013399834161493457,-6.250001695421234e-06,57.48233333333333,0.8434282555275359,2.4299999999999997,0.0014884379037646222
S052,8197.0,8226.984375,W,-0.26887500000000003,77.17350056842294,-532.5,585.73,1118.23,3.67,85.03285488309085,1078.125,1024.5849609375,0.829987423557664,0.4248723255938842,0.3606619468845522,63.73078550451665,0.45357356326346926,66.96267617113283,0.25729166666666664,154,0.24067119166666667,0.0029251883708456433,3.844715235654098e-06,35.39199999999999,0.011944315244778646,5.763890452443439e-06,60.51566666666666,0.6662666299779856,2.280000000000001,0.00044822928825664264
S052,8227.0,8256.984375,W,0.23640104166666695,63.68330703662001,-443.79,498.61,942.4000000000001,5.675,107.53128183114285,921.875,975.1790364583334,1.2372614809417701,0.5066228051190221,0.6800703343935994,63.579897683986715,0.6604497158098696,68.51277253184256,0.025,7,0.25593401666666665,0.00857858629863077,1.4175178758457781e-05,35.39466666666666,0.012310790208412106,3.472223164118147e-07,60.73766666666667,0.2581818910940292,0.75,-9.270835848209081e-06
S052,8257.0,8286.984375,W,1.8912447916666673,86.87907728419184,-506.14,685.3,1191.44,4.96,66.21365011804403,1000.0,1024.90234375,1.8752673420519717,0.3264923004026622,1.0839661613209561,63.51354401614471,0.9908631805568321,77.28518616138541,0.030208333333333334,8,0.2796393083333334,0.006264382620279821,1.0412492190888716e-05,35.35366666666666,0.0332147892093595,-5.1770847377073804e-05,59.092000000000006,0.7346445852700927,2.740000000000002,-0.0007167363055382765
S052,8287.0,8316.984375,W,-2.941953125,105.2703356036846,-935.9,528.73,1464.63,5.025,26.20249486398191,1031.25,1030.5745442708333,3.280210648882426,1.0193952455582018,8.094683759414604,63.43726807082183,1.0218951564074799,71.11258679024411,0.057291666666666664,25,0.25784455833333336,0.07752576828274538,-8.072430466696632e-05,35.334666666666664,0.009213516640724222,-3.6805565539720302e-06,58.26933333333333,0.28140046592396134,0.9699999999999989,-0.00027750007527671305
S052,8317.0,8346.984375,N2,0.35613541666666654,268.0824421624702,-1355.06,1421.54,2776.6,10.645,40.49088928456203,953.125,968.5384114583334,44.727843628546665,16.51584069027663,9.89701084003187,64.61067622122488,3.2592971997112294,84.41563836162112,0.11041666666666666,46,0.3470409833333334,0.10982086720701,0.00010836118347471338,35.48533333333333,0.049580462101740844,7.604168729429385e-05,59.08033333333333,0.9903281723191002,3.6400000000000006,0.0017089935191497178
S052,8347.0,8376.984375,N2,1.143468749999998,175.22922577610382,-751.02,1039.59,1790.61,1.605,0.0,953.125,953.125,17.101924716038706,35.275119042144986,10.041097786012438,64.43844525412837,5.4780149900032935,102.96115772464877,0.10833333333333334,36,0.24913525,0.09730124409775465,6.615256568808757e-06,35.523,0.03671057976478435,-2.177083923905079e-05,66.38366666666667,3.399720070175712,11.04,0.00604670302916206
S052,8377.0,8406.984375,N2,-0.8014322916666672,161.6068227864332,-813.68,1489.72,2303.4,-0.63,69.5280724417308,953.125,945.60546875,12.439976547126426,4.467317660893764,3.9971928897995266,63.77310129734472,2.0409579250792724,88.18163074019441,0.03229166666666667,9,0.25542185833333336,0.015896587029556503,-1.6073677754361372e-05,35.60933333333334,0.028511206373790638,4.1180566726499194e-05,75.35799999999999,0.966534703636312,3.2099999999999937,0.0012438892263154375
S052,8407.0,8436.984375,N2,0.7241718749999996,112.64932709723588,-421.31,747.83,1169.14,0.445,0.0,1000.0,1000.0,13.683246421770269,2.6984271959045367,21.041915840108818,64.28911762049198,1.7648127129753726,80.33679107357973,0.06145833333333333,24,0.14278675833333335,0.12263222881737328,-0.000195237697275851,35.60333333333333,0.04846533698313554,-4.597223469298925e-05,73.381,1.367607034202443,4.1000000000000085,-0.0023643409191463015
S052,8437.0,8466.984375,N2,-0.7714739583333329,102.90611388524427,-646.81,1200.07,1846.8799999999999,-2.88,226.44434497026927,1000.0,780.7535807291666,1.816011923296638,2.2797681164825856,2.4749780793080887,64.86013906546829,0.6097010809517988,72.3118247591637,0.10416666666666667,73,0.0034368083333333336,0.015444038395281546,4.982004172635675e-06,35.51233333333333,0.022903177848401617,-2.295139511485273e-05,73.77866666666667,3.814799892815115,11.429999999999993,0.006427987854814412
S052,8467.0,8496.984375,N2,-0.2890624999999998,93.3762636341106,-577.0,437.98,1014.98,-5.105,0.0,546.875,546.875,1.4638215183211374,1.1897985794756283,3.421812531139584,65.03122145521031,0.7621424036190377,72.62919523166975,0.07395833333333333,54,0.004557408333333333,0.011135974305896957,-1.3171507479250074e-06,35.49733333333334,0.021281186266016407,-2.7638896386419083e-05,89.96033333333334,4.134320970714403,12.740000000000009,0.007094203313314697
S052,8497.0,8526.984375,N2,0.4651041666666657,122.3731458992569,-270.94,408.9,679.8399999999999,-26.145,0.0,546.875,546.875,0.08507936450096985,0.42555111326373,0.47981726664950275,64.73650376502823,0.2952348452028306,65.3299318842443,0.23020833333333332,62,0.0,0.0,0.0,35.478,0.010770329614270208,7.916668814201392e-06,89.68233333333333,4.534299419118927,13.150000000000006,-0.007741286822180675
S052,8527.0,8556.984375,N2,1.0136874999999994,134.83194449768698,-614.42,754.97,1369.3899999999999,-16.14,0.0,546.875,546.875,0.7122166834374681,0.5210791086773677,2.207810226958805,64.92406465769149,0.41857296125951243,68.01470429252781,0.027083333333333334,15,0.01655423333333333,0.014995076260633762,2.3249672105488306e-05,35.49000000000001,0.01527525231651922,-4.930556893055458e-06,72.77233333333334,4.787670751234072,14.599999999999994,-0.008552189819929964
S052,8557.0,8586.984375,N2,-0.9873958333333335,75.86782691443268,-487.97,628.42,1116.3899999999999,-12.09,30.944072740180243,546.875,519.9869791666666,0.625485922214792,0.41620286686769575,1.6463224484184946,64.96920201674916,0.3800736422117914,68.0,0.015625,11,0.036876033333333336,0.007614805481137096,1.4643450152845667e-07,35.47900000000001,0.02196208854670603,1.3229170255309815e-05,65.74466666666667,0.5643092138968571,1.5999999999999943,0.0007768057662776067
S052,8587.0,8616.984375,N2,-0.09171354166666662,80.90383954650025,-365.2,461.33,826.53,-12.735,0.0,484.375,484.375,0.6286007388548703,0.37003513112120706,1.8057957906418984,64.91581665495234,0.5023674159561833,70.03570517957252,0.021875,11,0.042426075,0.010404635708954047,7.361036067989384e-06,35.437999999999995,0.01973153144926649,-2.222222825038474e-06,67.42633333333335,1.304084566105878,4.310000000000002,0.002314896461289188
S052,8617.0,8646.984375,N2,-2.148552083333333,94.46244083346585,-571.75,451.66,1023.4100000000001,-9.274999999999999,6.879275562665232,484.375,488.4847005208333,0.33083536680735265,0.6378871033319472,0.7048443484596835,65.00566352274095,0.4172848365961333,68.60029154456998,0.015625,9,0.03910685833333334,0.026219200989381755,-3.7115773306145104e-05,35.380333333333326,0.039873410800794234,-2.2326394945311572e-05,73.16333333333333,1.8803941667167061,5.780000000000001,0.003379028694397971
S052,8647.0,8676.984375,N2,2.9450364583333326,95.97508867972984,-530.28,617.25,1147.53,-6.4,0.0,500.0,500.0,1.1269350641846623,1.4041960308502355,1.6319798681143576,64.8972147234109,0.47921408941936294,69.68500556073738,0.03229166666666667,20,0.011527116666666667,0.013723956930117576,2.1139675873392977e-05,35.495333333333335,0.013597385369580748,1.541667084870645e-05,70.63333333333334,2.496457935199834,8.11999999999999,-0.004282223383849659
S052,8677.0,8706.984375,N2,0.08391145833333305,98.65797042667617,-394.34,388.13,782.47,-16.65,0.0,500.0,500.0,0.8004657661064172,1.0041493774445227,4.222896496210667,64.97645767731956,0.43963739699145116,71.47027354082255,0.034375,25,0.039992675000000005,0.011320648335499239,1.5239785601070309e-05,35.50333333333333,0.019550504398153236,-2.0138894351912323e-06,65.85966666666667,1.0449513013639538,2.9199999999999875,-0.0016850351793172673
S052,8707.0,8736.984375,N2,-1.2145104166666671,92.49684365543854,-535.82,719.38,1255.2,-8.395,0.0,500.0,500.0,2.1133011301437064,1.483655161716795,4.324223070671835,64.71717783860937,0.8064950542148425,72.09715667070374,0.030208333333333334,16,0.030813725,0.021244158420595884,-3.087530633553232e-05,35.472,0.0400333194560054,4.756945734848422e-05,66.39233333333333,1.4297684738757133,4.86999999999999,0.00241802148926364
S052,8737.0,8766.984375,N2,0.20079166666666676,41.44121295329,-361.38,163.0,524.38,-4.67,0.0,500.0,500.0,0.5306726846785021,0.813204155341012,2.4375498570399654,64.56495481667821,0.41325075555706603,68.09552114493287,0.1,69,0.03534976666666666,0.02004437420937744,2.9951727308953808e-05,35.532666666666664,0.018607047649269275,8.888891300154537e-06,71.86733333333333,0.8063123188663021,2.839999999999989,0.00122118088682207
S052,8767.0,8796.984375,N2,0.19632291666666657,35.10181793012851,-408.58,250.71,659.29,-1.5150000000000001,116.48876130473145,500.0,556.4371744791666,1.2964289728316094,1.16321615858671,3.1132889938736814,64.74955100712273,0.666785354777486,71.09149034870488,0.022916666666666665,11,0.04968399999999999,0.01775244400357314,-5.792678220670091e-06,35.54533333333333,0.017461067804944493,1.6041671018247878e-05,77.03199999999998,1.7656753193419588,5.6200000000000045,0.002763195194009111
S052,8797.0,8826.984375,N2,0.0686145833333331,51.86205112942849,-502.71,494.8,997.51,-3.455,0.0,796.875,796.875,1.3124499825125613,0.8160971387834635,2.7763164341818705,64.8210884849179,0.6834563851805254,71.596089278675,0.022916666666666665,10,0.00030952499999999995,0.0015333250903537495,4.4610363663835607e-07,35.582666666666675,0.02448582356294371,1.4375003899471048e-05,76.02366666666667,1.3858438664662853,4.780000000000001,0.0007026738017235794
S052,8827.0,8856.984375,N3,0.07071354166666642,46.72711121457872,-513.31,262.12,775.43,-4.585,0.0,796.875,796.875,1.4801636164955625,1.9448111943315274,1.5042442125671172,64.64347238246947,0.8389100092231511,74.87322618933953,0.022916666666666665,11,0.003906391666666667,0.009855811042472889,1.913915666752297e-06,35.58800000000001,0.013012814197295455,-6.041668305574757e-06,86.77266666666668,5.014829962775962,16.47,0.008924516309818878
S052,8857.0,8886.984375,N2,-0.19677083333333328,71.90547491027705,-626.12,714.47,1340.5900000000001,-8.02,0.0,796.875,796.875,0.6547030378028907,0.9985905866380987,1.4191751687942622,64.69650056644072,0.7240668407471206,72.59476565152615,0.046875,27,0.0013021250000000003,0.0020913646285081423,-1.8466604401748158e-06,35.58066666666669,0.019136933459211303,-1.2916670170539812e-05,107.56866666666669,5.46631608631952,18.39999999999999,0.009753544312484892
S052,8887.0,8916.984375,N2,0.018468749999999843,77.52599436740734,-423.68,912.33,1336.01,-5.29,0.0,796.875,796.875,1.0612610218966971,1.0132370431224649,2.574082689563087,64.71187685179852,0.7260585267921568,73.81734213584231,0.021875,10,0.031485983333333335,0.020141030556215064,3.0897746662800205e-05,35.58000000000001,0.016124515496598737,9.23611361656813e-06,116.83733333333336,0.6282830218584262,1.8500000000000085,0.0008283335580331931
S052,8917.0,8946.984375,N2,-0.23418750000000005,56.206871595456875,-634.25,245.49,879.74,-4.975,0.0,796.875,796.875,1.6988353853939664,0.8872138623240736,2.671656911177344,64.76575974799934,0.7955014756496857,73.65459931328118,0.03125,12,0.0018145166666666665,0.00852568175278213,-3.5044289020260694e-06,35.625,0.019104973174541975,1.1423614209965332e-05,117.929,0.5384876971667969,1.7399999999999949,0.0004920487445878727
S052,8947.0,8976.984375,N3,0.0752083333333334,83.78100671703042,-458.26,587.98,1046.24,-6.1899999999999995,0.0,796.875,796.875,0.44996985817262125,0.32331125085674883,0.5773352338305902,64.82715294028345,0.37169654795877655,66.70832032063167,0.016666666666666666,9,0.0008752166666666664,0.0022427870986168577,2.3270062736019627e-06,35.62666666666667,0.011642832797715445,1.2291670000995571e-05,120.077,0.7509689296724152,2.8599999999999994,0.0009543405366592137
S052,8977.0,9006.984375,N3,0.12484895833333312,107.14973724486613,-911.25,647.07,1558.3200000000002,-6.324999999999999,0.0,796.875,796.875,0.7398437041681318,0.8514380961627346,1.7518142257663118,64.728314290254,0.45702386016969526,67.63135367564367,0.04479166666666667,25,0.0010780750000000002,0.0022970954673329678,-1.051521769618536e-06,35.64133333333333,0.01927577639306711,6.805557401681599e-06,120.09766666666668,0.7200448288513411,2.1000000000000085,-0.0008776738491953812
S052,9007.0,9036.984375,N3,0.05734374999999978,38.7571868849637,-381.05,181.82,562.87,-2.59,0.0,796.875,796.875,0.4860510875640771,1.1175680441625617,2.120945631850069,64.64108874120362,0.3865721388098411,67.7421582177598,0.057291666666666664,40,0.030589525,0.01966002650217038,2.6920561339127968e-05,35.64466666666666,0.010873004286864565,-3.472223164122346e-07,120.06466666666665,0.5781795184504159,2.0,0.0004815973528638657
S052,9037.0,9066.984375,N3,0.03526041666666672,30.662803639189885,-157.42,433.15,590.5699999999999,-2.02,48.58138341027761,796.875,777.392578125,0.5589927309580053,0.7043731206225544,0.8339997335464535,64.57603741975622,0.4947384786374274,71.11258679024411,0.010416666666666666,6,0.007855541666666665,0.016999638502477942,-2.015139587440209e-05,35.635999999999996,0.021540659228536544,-1.5347226385420918e-05,122.54666666666668,1.9149383511979936,6.27000000000001,0.0032863203359158907
S052,9067.0,9096.984375,N3,0.3060677083333333,49.58045590676329,-197.94,659.42,857.3599999999999,-1.8450000000000002,91.31346192644902,656.25,615.3645833333334,2.7155223097832497,1.404457190518814,4.691649899133744,64.65343459268081,1.0547805632511578,77.92303895511263,0.026041666666666668,11,0.10142793333333332,0.053969362353828945,7.947651982327469e-05,35.65933333333332,0.009285592184789674,6.388890621986054e-06,138.24133333333333,5.858759671542168,20.289999999999992,0.010482919510340577
S052,9097.0,9126.984375,N3,-0.324104166666667,74.07500396789268,-371.24,670.0,1041.24,-1.47,0.0,406.25,406.25,2.301810881313522,1.758831571886259,3.263752952251952,64.69276134571196,0.852547828622868,75.95393340703298,0.028125,10,0.1218353,0.025730614030307682,7.928452671563768e-06,35.655333333333324,0.01454494948618,-9.097224690001484e-06,149.99266666666668,1.9041444856476148,6.969999999999999,-0.0020781950081909203
S052,9127.0,9156.984375,N3,0.04040104166666668,59.82312556085996,-210.79,595.19,805.98,-1.1749999999999998,0.0,406.25,406.25,0.8851782767314289,1.2168695428742557,2.967719119262019,64.67498505637109,0.6474755785681499,71.37226352022192,0.025,13,0.14272278333333333,0.012882092209202233,1.8867195222220928e-05,35.66399999999999,0.010198039027186512,-3.6111120906878323e-06,131.03066666666666,7.332191092860455,25.549999999999983,-0.013183336909542341
S052,9157.0,9186.984375,N3,-0.08526041666666674,51.271997236906515,-314.22,499.74,813.96,-1.145,0.0,406.25,406.25,2.1335113451121424,1.3707601139260492,3.9314436171628553,64.53127123084641,1.2806378609633822,76.03946343840151,0.03229166666666667,13,0.15283043333333335,0.013607069826462353,-1.0863988624128855e-05,35.66333333333332,0.00977525219907767,-3.472223164129994e-07,108.39966666666668,4.6787537395716345,16.61,-0.008389203664606028
S052,9187.0,9216.984375,N2,0.3390104166666669,76.15854344624809,-419.89,595.73,1015.62,-1.3849999999999998,0.0,406.25,406.25,1.4815473799001124,1.0426198763678074,1.3241050272783836,64.34737774119135,0.6160853559093711,74.9933330370107,0.09270833333333334,62,0.1607605666666667,0.009727547037265983,-2.967765562002393e-07,35.68533333333333,0.018024674446128826,2.215278378710664e-05,99.75666666666666,0.4516808115866291,1.8299999999999983,-0.0005525001498752593
S052,9217.0,9246.984375,N3,-0.2759479166666664,59.31703678326562,-622.72,414.51,1037.23,-1.34,0.0,406.25,406.25,3.725096562646621,1.2233615566396914,4.912115544575869,64.3423814131937,0.6476205775287833,71.79136438319027,0.01875,8,0.09873831666666666,0.04123669103965208,-5.6025406690919764e-05,35.71066666666666,0.020965580258020894,2.1597228080844078e-05,99.88833333333332,1.9124871822373666,5.829999999999998,0.00275017435714365
S052,9247.0,9276.984375,N2,0.06122395833333324,78.87758513996447,-428.06,773.23,1201.29,-1.105,0.0,406.25,406.25,4.8817206834882745,2.872167800331988,12.206156660336074,64.33603998608228,1.459523521297671,81.78630692236935,0.03229166666666667,13,0.10945434166666666,0.03219765921654757,3.85073157843196e-05,35.746,0.014966629547097408,1.3611114803363717e-05,106.55300000000001,1.4171289049812414,5.200000000000003,0.002498924288987708
S052,9277.0,9306.984375,N3,-0.34648958333333346,92.00650680550793,-603.85,924.16,1528.01,-6.84,20.372507516258278,406.25,421.875,1.0891625023830112,1.0325854148151081,1.6877157140932304,64.73356843562108,0.7776251822675159,72.069410986909,0.03125,19,0.17292811666666666,0.007743215089336098,6.90356524076748e-07,35.711666666666666,0.030992830712207924,-5.104168051260811e-06,120.21433333333333,6.705732713300033,19.220000000000013,0.01195330185365176
S052,9307.0,9336.984375,N3,0.22941145833333335,75.9654999491098,-524.33,542.36,1066.69,-4.29,0.0,437.5,437.5,2.501721412556096,2.7366714562990975,9.809458790923856,64.50352156855253,0.9994149565007381,79.28429857165919,0.03854166666666667,23,0.17358998333333334,0.009714849795530667,-9.053986397023216e-06,35.73466666666666,0.03413046862978771,-4.104167779993469e-05,127.98933333333333,0.651137125001759,2.8500000000000085,-0.0011123614128584576
S052,9337.0,9366.984375,N2,-0.05947395833333332,52.393229073957606,-217.11,687.32,904.4300000000001,-1.06,5.887783553595028,453.125,450.4475911458333,2.182362767338164,2.6650220758805276,5.38693764788699,64.53577501100989,1.1851485399075339,74.69270379361026,0.028125,12,0.14924418333333334,0.02339264804875787,-1.9702262289024998e-07,35.68766666666666,0.0201135664553952,1.1562503136530594e-05,116.11666666666666,7.053064739687438,19.60000000000001,-0.012548545070677373
S052,9367.0,9396.984375,N2,-0.10656770833333298,69.31536893777447,-537.68,473.3,1010.98,-1.145,68.95105267800683,593.75,537.20703125,1.9570893101001634,2.000828821319361,4.317529147870149,64.35789652920992,0.9888483211162565,72.26340706055866,0.03854166666666667,15,0.12400175000000004,0.03591542890510289,-3.3688533010127226e-05,35.70799999999999,0.021354156504061476,1.7916671526873675e-05,106.60733333333334,0.8845297557962021,2.719999999999999,-0.0012813892364879665
S052,9397.0,9426.984375,W,0.23563541666666676,40.47329444641547,-314.98,432.36,747.34,-1.42,88.18815230571326,406.25,468.7662760416667,1.566971379941432,0.8309732204202225,2.042303259598502,64.3289505819938,0.4901873989261408,69.4334213473598,0.027083333333333334,10,0.114321275,0.059836275257706684,9.410401749783461e-05,35.74400000000001,0.01380821011814023,8.125002204048461e-06,104.57633333333334,0.547962792735256,2.3299999999999983,-0.0009030905227567582
S052,9427.0,9456.984375,N2,-0.05415625,46.45628261598661,-455.84,489.69,945.53,-0.57,0.0,406.25,406.25,0.8635102527458619,0.6373740343959912,0.863841926085953,64.42162375042598,0.5793473556945171,67.96322535018479,0.040625,19,0.17100695833333335,0.010125475965270168,8.492949569485016e-06,35.74733333333334,0.015260697523014519,5.277779209468162e-06,96.10633333333335,3.827805710267379,12.829999999999998,-0.006894619925840907
S052,9457.0,9486.984375,W,0.03633333333333345,84.66823457369587,-297.48,598.59,896.07,-1.46,0.0,406.25,406.25,3.0216836087845502,5.139957424569672,5.522708407993512,64.53794826582671,1.838280529228936,86.72369918309528,0.029166666666666667,11,0.09133101666666668,0.07907558020906152,-0.00012056929225512485,35.744666666666674,0.01359738536958228,-3.888889943817743e-06,87.05300000000001,1.910368463586715,5.25,-0.003376841193804578
S052,9487.0,9516.984375,N1,0.11005729166666658,42.5690256236715,-217.42,583.8,801.2199999999999,-1.815,54.052358838708194,484.375,448.0550130208333,5.403665386510808,2.6486500754577267,9.49091756765602,64.46023601324168,0.5152408341564585,68.89121859859934,0.030208333333333334,14,0.11276303333333333,0.0722978700144909,0.00011435929577888882,35.73800000000001,0.01222020185321694,-7.500002034506414e-06,82.664,1.8461773118166815,5.8700000000000045,-0.0032140980941021305
S052,9517.0,9546.984375,W,0.8374947916666667,92.03580327177126,-512.87,559.76,1072.63,-1.82,0.0,359.375,359.375,2.4914297546232813,1.8746154119467633,3.2020770643508363,64.14927310949267,1.2877342597454315,92.09777413162601,0.019791666666666666,11,0.15896751666666667,0.038237254072649995,-4.133331416376794e-05,35.76200000000001,0.03409789827345207,4.2083344749171203e-05,79.77533333333334,1.9625081457721962,6.0,0.003339028683547279
S052,9547.0,9576.984375,N1,-1.0203593749999995,248.343081806756,-1247.02,1125.88,2372.9,-1.5950000000000002,13.536305466684457,359.375,359.9934895833333,9.67973053135893,32.218694414086116,23.68143884543189,65.06792725838638,3.391817452439583,86.19164692706596,0.06354166666666666,29,0.19188385,0.04791505571627948,-1.2620025124789804e-05,35.76433333333334,0.10790994187541623,-0.00015593754230076704,85.68566666666668,2.1103707151956863,6.019999999999996,0.003705313505130616
S052,9577.0,9606.984375,W,1.7440677083333347,161.9345735164797,-691.31,1000.37,1691.6799999999998,11.375,99.35725466184199,1000.0,983.2194010416666,11.099264034582427,36.74235167896908,18.9117977397708,65.16361027027385,2.952001560048345,93.60021367496978,0.065625,33,0.13556106666666665,0.07127190606505172,-8.306094050047213e-05,35.673,0.08509406559801978,0.00013677087043480687,83.67666666666668,5.094690264274059,15.47999999999999,-0.008908196860947497
S052,9607.0,9636.984375,W,-1.8808958333333334,173.12173513205954,-600.89,1258.43,1859.3200000000002,-8.7,0.0,1000.0,1000.0,18.91179151455331,16.2568990429619,28.51259496839243,65.11993195015881,4.314544719900233,101.99509792141973,0.08541666666666667,30,0.0744246,0.06762701994991843,0.00011154190048337142,36.07399999999999,0.1346749172390066,0.0001727778246467622,68.80266666666667,1.4873778567966134,6.030000000000001,-0.0024702784478836913
S052,9637.0,9666.984375,W,0.23542187499999975,17.126205280856045,-46.59,60.66,107.25,-0.145,30.46053153375698,1000.0,1014.6077473958334,0.45734267938700945,0.0,0.45111623709970805,64.7326065649689,0.4414245555906512,65.49045732013177,0.29791666666666666,181,0.20542819166666665,0.013413998294875789,2.3945614785594285e-05,36.146333333333324,0.011396880664850237,6.840279633321023e-06,66.30233333333334,1.664164822232329,5.760000000000005,0.0017289240801117843
S052,9667.0,9696.984375,N1,0.26225520833333343,124.15527598144438,-691.26,488.84,1180.1,-1.82,0.0,1078.125,1078.125,0.5047689240302602,0.8740762733292914,2.2068774682166254,64.87581697698693,0.4451552933097464,67.31270311018568,0.16770833333333332,91,0.23575086666666667,0.010521082180502576,1.7671396720756487e-05,36.16333333333332,0.00977525219907767,1.1388891978324329e-05,74.804,1.2146867909053778,4.5800000000000125,0.0013986809349720445
S052,9697.0,9726.984375,N1,0.04026562500000021,15.17799446986854,-41.36,58.16,99.52,0.555,0.0,1078.125,1078.125,0.0,0.21358993356949718,0.4491009054365053,64.72143885662487,0.0553232456014806,64.95382975621992,0.04791666666666667,44,0.25800467499999996,0.0037806745609800445,6.535437753753727e-06,36.190333333333335,0.01923249564900266,8.298613362254034e-06,83.04500000000002,5.651876237144617,16.230000000000004,0.010061495784910965
S052,9727.0,9756.984375,W,-0.2448281250000005,59.906630757541855,-369.56,341.23,710.79,-0.92,0.0,1078.125,1078.125,1.0739532815917399,2.5734344957986917,1.7796517561770024,64.79808827379829,0.646662761964368,72.40856302952021,0.03958333333333333,21,0.25563525,0.02150533027850305,9.459548573011229e-06,36.193666666666665,0.019745604292826662,-2.392361760080837e-05,83.13499999999999,2.961490334274283,8.91000000000001,-0.0050173971943894315
S052,9757.0,9786.984375,W,0.026744791666667805,168.0027798705943,-876.18,857.71,1733.8899999999999,7.17,0.0,1078.125,1078.125,21.05211126915514,17.55867531999654,6.146945432573943,65.1146327365499,1.2171600487306988,77.80745465570763,0.06770833333333333,43,0.1417836,0.06899821397753712,4.354639462521555e-05,36.13699999999999,0.03174376579214496,2.1423616922636702e-05,72.11033333333334,6.612060941105194,18.96,-0.011797260144656072
S052,9787.0,9816.984375,N1,-1.705078125,254.29699308255147,-1553.33,1662.21,3215.54,-8.035,0.0,1078.125,1078.125,11.806671107424348,12.646317089868496,14.565267046067637,65.1465927217737,3.969624047271285,86.74675786448736,0.103125,54,0.1333517083333333,0.07514203900640394,-8.40051779527935e-05,36.15766666666666,0.016868774571839502,-6.006946073931659e-06,63.97866666666667,2.124100960144994,7.119999999999997,0.003739376014370662
S052,9817.0,9846.984375,N2,2.822515625,57.61850937845014,-277.82,479.65,757.47,2.645,25.598233465912276,1062.5,1064.4449869791667,0.0,0.04559597630883185,0.46455997699137,64.73224484631562,0.09692173806337147,64.87680633323437,0.30833333333333335,125,0.08070046666666666,0.00892810908118598,1.575282415169926e-05,36.173333333333325,0.020709632756013,3.0138897064589243e-05,74.20533333333333,2.362891919284971,7.199999999999989,0.0037396537922237895
S052,9847.0,9876.984375,N2,-1.45384375,114.28155311424828,-640.84,601.63,1242.47,-4.720000000000001,0.0,1062.5,1062.5,0.9038665976729581,0.8194653363626799,4.4194718882275215,64.79868672072197,0.6029366492956035,70.22107945624305,0.09895833333333333,64,0.07362413333333333,0.0639115605042016,2.0839508257245076e-05,36.21133333333333,0.01746106780494486,9.097224690001954e-06,73.75099999999999,2.4348885669232034,8.049999999999997,-0.004053230266175744
S052,9877.0,9906.984375,N2,2.03378125,109.5355943820987,-577.01,836.64,1413.65,3.355,0.0,1062.5,1062.5,30.504213051460436,18.793559096090977,22.984248455917225,65.14978850793645,4.3543387218363145,92.07605551933683,0.10208333333333333,29,0.17379270000000002,0.06915789726784642,-3.156209406523819e-05,36.22333333333333,0.030695638488590016,-3.2708342206038496e-05,63.847666666666676,1.8547267244050323,5.640000000000001,-0.0009052433011185172
S052,9907.0,9936.984375,N2,-2.280229166666667,153.00663502855028,-727.21,626.88,1354.0900000000001,-0.045,114.97794864767633,1062.5,978.5237630208334,32.399285989646266,17.675353480474506,19.02290146546868,64.64146740481944,2.9244771757817727,79.7057087039567,0.07083333333333333,26,0.11574080833333333,0.045063072612967665,5.7267599953233495e-05,36.21366666666666,0.02774687169554258,4.21875114440944e-05,73.00500000000001,2.6348608438903693,9.400000000000006,0.004601216525937641
S052,9937.0,9966.984375,N2,0.3870729166666663,74.10353765716711,-250.91,205.78,456.69,8.175,25.305501286904075,875.0,888.5172526041666,0.06441510347391795,0.11172573064826602,0.15021685713216965,64.98461287419836,0.07962154592499028,65.49045732013177,0.00625,6,0.169384625,0.00785067216767934,1.4005423721089332e-05,36.274,0.014966629547095066,1.0555558418933757e-05,75.94200000000001,1.146555420960248,4.140000000000001,-0.0017615282556228977
S052,9967.0,9996.984375,N2,0.2824010416666663,87.05299512016373,-191.15,167.92,359.07,13.620000000000001,29.934573310750654,890.625,889.2008463541666,0.05581428468591173,0.10663227798529547,0.08523227047636099,64.98576842172434,0.07149105783856304,65.49045732013177,0.007291666666666667,7,0.19160628333333332,0.005447530361217724,9.654352011271705e-06,36.289333333333346,0.010934146311237432,8.819446836871352e-06,67.88633333333333,1.8131436481671526,6.049999999999997,-0.0028764243913911663
S052,9997.0,10026.984375,N2,2.017390625000001,106.05393201895319,-274.52,292.06,566.5799999999999,13.27,48.98022101535918,890.625,898.0794270833334,0.1015291077584267,0.10642856726723117,0.47933760537908515,65.00379375219599,0.11422706320494642,65.26867548832288,0.15,11,0.21012441666666667,0.005890829041234821,1.0458768462122522e-05,36.305333333333344,0.012310790208413426,8.958335763437725e-06,66.227,0.13188757838907225,0.37000000000000455,0.0001820486604949701
S052,10027.0,10056.984375,N2,-1.6679739583333335,95.33885131799491,-221.86,211.54,433.4,2.23,48.22253583307048,921.875,916.8294270833334,0.13188915142607024,0.12447371850002002,0.3503718263026676,64.99770638416153,0.13005690420572796,65.49045732013177,0.016666666666666666,12,0.22520567500000002,0.004753176627552182,8.349116197134384e-06,36.324999999999996,0.009219544457291439,8.506946752100463e-06,65.765,0.21127785812368838,0.769999999999996,-0.0003696876002841792
S052,10057.0,10086.984375,N2,-0.8085260416666664,105.48169918069294,-212.29,244.7,456.99,9.64,48.24712661945607,937.5,926.3509114583334,0.11110243021644486,0.12074350109035085,0.1361518504791209,64.98460645367996,0.11586224726197734,65.49045732013177,0.021875,15,0.2385152916666667,0.003191004989016872,5.518453970934784e-06,36.346333333333334,0.0160173517023107,1.447917059439329e-05,65.21666666666667,0.14088608479508982,0.4000000000000057,-0.00024111117651670627
S052,10087.0,10116.984375,N2,-0.13041666666666615,108.30098547245798,-202.89,211.11,414.0,7.9799999999999995,12.427029609830514,921.875,921.1181640625,0.1356408400888169,0.12011279421166313,0.06451609403000842,64.98220422423789,0.1315326047401516,65.49045732013177,0.014583333333333334,10,0.24991431666666666,0.003609650742531137,6.278095019014499e-06,36.380333333333326,0.014255603186895636,1.3645837035004054e-05,64.75166666666668,0.2410405682775314,0.6099999999999994,-0.00041809039119205377
S052,10117.0,10146.984375,N2,0.30245312500000016,109.59750698470941,-205.01,204.31,409.32,9.805,29.19468215408444,984.375,980.8268229166666,0.08507936450096985,0.07216126567549164,0.06451609403000842,64.98533176250098,0.08158258199651691,65.49045732013177,0.003125,3,0.2618577833333333,0.0036031658421989054,6.2639079491937954e-06,36.39933333333332,0.012364824660659628,1.2361114464276046e-05,63.691,0.4165761234956546,1.3000000000000043,-0.000726007141386486
S052,10147.0,10176.984375,N2,0.1126822916666665,112.22794711287334,-206.53,223.56,430.09000000000003,4.720000000000001,27.47061107909528,984.375,968.0094401041666,0.11557806855349137,0.10197698542100347,0.05589199343873463,64.98267390601382,0.11184226098257273,65.49045732013177,0.008333333333333333,8,0.27287245,0.003302257825715615,5.683558399402782e-06,36.40933333333332,0.00963788819653358,4.236112260229484e-06,63.510666666666665,0.15823891921886823,0.5,0.0002479861783816672
S052,10177.0,10206.984375,N2,0.4820364583333335,115.43345285302519,-218.84,229.21,448.05,7.535,0.0,937.5,937.5,0.05581428468591172,0.09128709291752768,0.06454972243679027,64.98970102285419,0.06622658099329834,65.49045732013177,0.00625,5,0.28401530833333327,0.003125289292731773,5.34777163296756e-06,36.418,0.013266499161422172,1.5277781922143503e-06,64.33733333333333,0.3872202933157759,1.230000000000004,0.00069395852158163
S052,10207.0,10236.984375,N2,-0.5158489583333338,114.93503117707458,-215.36,218.55,433.91,5.785,5.971549708429179,953.125,950.3499348958334,0.07880950133074056,0.10197698542100347,0.04564354645876384,64.98495968954902,0.08424654904986965,65.49045732013177,0.004166666666666667,4,0.29386690833333334,0.0029336824441755617,4.965538022335621e-06,36.43533333333333,0.012578641509410772,4.166667796948296e-07,64.60233333333333,0.23566478075624636,0.6899999999999977,-0.000417326502095951
S052,10237.0,10266.984375,N2,0.6613802083333338,117.06210070060581,-216.44,223.19,439.63,6.385,0.0,953.125,953.125,0.03225804701500421,0.10691682092740235,0.0,64.98891439294863,0.059211704906243855,65.49045732013177,0.003125,3,0.3037289,0.003291677546986232,5.663824887105267e-06,36.431333333333335,0.01359738536958221,4.305556723512869e-06,64.32633333333334,0.1481549489179797,0.4200000000000017,-0.00021579866965024805
S052,10267.0,10296.984375,N2,-1.7057656249999995,121.67520925576684,-220.93,229.36,450.29,10.094999999999999,0.0,953.125,953.125,0.03225804701500421,0.09107288747664329,0.04564354645876384,64.98840004498788,0.05149038054781905,65.37583651472461,0.0020833333333333333,2,0.3138578166666667,0.0031366165289563575,5.385521426193963e-06,36.437999999999995,0.011075498483892499,-1.5277781922143748e-06,63.904,0.08232456093616988,0.3499999999999943,-0.00010819447379407117
S052,10297.0,10326.984375,N2,-0.14301562499999984,116.35686939200491,-218.42,219.15,437.57,6.345,0.0,953.125,953.125,0.05581428468591173,0.11987768650679834,0.07198059875565237,64.98320667511479,0.07594001572549092,65.12296062065974,0.005208333333333333,5,0.323986775,0.003095012276395956,5.250497735052556e-06,36.440666666666665,0.01236482466066231,-1.0555558418935558e-05,63.32833333333335,0.1478756985519337,0.46999999999999886,-0.00023788200897406967
S052,10327.0,10356.984375,N2,1.7904843750000006,120.60347332842434,-223.39,221.16,444.54999999999995,13.675,0.0,953.125,953.125,0.04559597630883185,0.11131708339493787,0.045595976308831845,64.98573303222618,0.06709891378668947,65.49045732013177,0.003125,3,0.3335178833333333,0.0029319127408096958,5.036510480824238e-06,36.43733333333333,0.01093414631123882,7.013890791529408e-06,63.41533333333333,0.14493063474948562,0.490000000000002,0.00025118062369266006
S052,10357.0,10386.984375,N2,-0.012520833333333432,122.02739479014701,-243.39,220.24,463.63,15.995000000000001,0.0,953.125,953.125,0.045595976308831845,0.11987768650679832,0.045595976308831845,64.98369383355966,0.07037338170038422,65.12296062065974,0.0020833333333333333,2,0.3433373666666667,0.0030833559934302446,5.228801765625475e-06,36.44533333333333,0.015216949614017844,-1.1597225368170634e-05,63.76433333333333,0.11680991206038809,0.45000000000000284,-4.177084466439844e-05
S052,10387.0,10416.984375,N3,-0.6131302083333329,119.51259389854295,-223.04,223.85,446.89,7.625,0.0,953.125,953.125,0.032258047015004204,0.13188915142607022,0.06454972243679027,64.98282938895859,0.06929121279394472,65.12296062065974,0.0010416666666666667,1,0.35342371666666667,0.0033411936244984214,5.762870052861886e-06,36.44466666666666,0.012578641509409816,6.666668475117174e-06,63.499,0.1177667185583433,0.3500000000000014,0.00020267366608986217
S052,10417.0,10446.984375,N2,-0.5956302083333334,121.36378614443096,-221.83,222.63,444.46000000000004,10.969999999999999,0.0,953.125,953.125,0.045595976308831845,0.12401959270615269,0.06441510347391793,64.98345926399875,0.07232162575604252,65.12296062065974,0.004166666666666667,4,0.3628160833333333,0.0032567252943801633,5.574597432345224e-06,36.442,0.012220201853216399,-1.3888892656498266e-06,63.87133333333335,0.21175037714776818,0.6499999999999986,0.0003424306484458125
S052,10447.0,10476.984375,N3,0.9390937500000001,121.86409095754121,-223.99,221.47,445.46000000000004,15.07,0.0,953.125,953.125,0.04559597630883185,0.15644432360711874,0.06451609403000842,64.97966764673912,0.08588278442946808,65.49045732013177,0.004166666666666667,4,0.3725181083333334,0.0029975709799653755,5.0953622763027096e-06,36.44199999999999,0.011075498483891898,-3.055556384428873e-06,64.843,0.22369845775060557,0.6799999999999926,0.00034052092570554447
S052,10477.0,10506.984375,N2,-0.4223541666666666,120.9534051340449,-229.98,213.58,443.56,15.135,0.0,953.125,953.125,0.05581428468591172,0.139563897900647,0.07210109366946756,64.98144211429518,0.08350097708660034,65.49045732013177,0.005208333333333333,5,0.3823054666666667,0.00301737890928903,5.064618127337828e-06,36.43933333333333,0.016110727964793927,3.6111120906880047e-06,65.00533333333333,0.08762546560345126,0.22999999999998977,-0.00011368058639338323
S052,10507.0,10536.984375,N2,-0.39521354166666656,117.80883678635657,-227.12,211.4,438.52,12.594999999999999,6.993093686429717,937.5,941.8294270833334,0.03225804701500421,0.15612494995995993,0.1015291077584267,64.980611445268,0.08120672658600707,65.12296062065974,0.009375,8,0.39103611666666666,0.0029845046104374252,5.035556921537804e-06,36.442,0.014236104336042577,2.7196616539813005e-19,64.65366666666667,0.1907089114039751,0.5600000000000023,-0.0003406598146321125
S052,10537.0,10566.984375,N3,2.316395833333334,138.0590571633114,-457.13,883.22,1340.35,9.77,0.0,937.5,937.5,8.314405326750675,2.7841035610926705,13.278846841405318,64.74441019752297,1.0149375226516597,88.0056816347672,0.019791666666666666,10,0.45626674166666664,0.12675259716803278,6.596641481293805e-05,36.38966666666666,0.10584527491684408,-0.00013177086907846956,64.47033333333333,0.06690706655918788,0.20000000000000284,9.475697014891834e-05
S052,10567.0,10596.984375,N2,-2.79615625,42.91154288689605,-427.78,275.98,703.76,-3.875,222.3244139191905,500.0,700.9195963541666,0.27274764167938587,0.4904646323187387,0.5596998203402328,64.11127778089711,0.3150708396246149,64.73020933072904,0.16041666666666668,122,0.3675336416666667,0.01802173090179179,-9.087204070964648e-06,35.99433333333333,0.052642399472499296,-8.850696845349513e-05,63.934666666666665,0.6837871663674963,2.170000000000009,0.0008837502397325973
S052,10597.0,10626.984375,N3,0.9071875000000001,47.99604282631722,-437.81,253.89,691.7,-1.3250000000000002,0.0,500.0,500.0,0.11599041357658256,0.41620286686769575,0.41424295072121897,64.07767174009429,0.2973931775548176,64.66838485689897,0.11666666666666667,88,0.34681681666666664,0.005700762501606451,-9.681866341652111e-06,35.849333333333334,0.01998888580075257,-1.8750005086265432e-05,66.782,0.9978724033328776,3.1199999999999903,0.0017872227070374093
S052,10627.0,10656.984375,N3,-0.05602604166666705,113.05884845397509,-751.37,447.21,1198.58,-0.665,0.0,500.0,500.0,5.06564706280753,1.4954789360816452,6.05714934269597,64.20987096189225,0.6588912837589713,73.35529974037323,0.03854166666666667,27,0.26709341666666664,0.058782269860843714,-7.679210112632951e-05,35.98866666666667,0.2178643818729652,0.000336250091213676,71.67233333333334,1.081793829197084,3.8499999999999943,0.0015081601313368424
S052,10657.0,10686.984375,N3,0.5829947916666669,92.08253923926063,-670.24,422.3,1092.54,-1.88,2.0307745743950205,515.625,515.3564453125,0.3410547747430022,0.19741988090108856,0.47857640274452407,64.2848042697992,0.31685695027981753,65.19969325081216,0.128125,101,0.23053188333333333,0.048297492557616846,4.275824510586073e-06,36.34433333333333,0.03711992576620857,6.26041836491375e-05,69.24,1.1251014769047878,4.430000000000007,-0.0019261810780656146
S052,10687.0,10716.984375,N3,-0.2805416666666666,68.03457357842602,-393.38,391.54,784.9200000000001,2.38,206.74581304264964,515.625,653.9713541666666,0.5038738819276991,0.43690311465726844,1.0421826846881928,64.31804629643982,0.2911253035322615,65.63535632568775,0.06041666666666667,43,0.014846516666666669,0.03158586469345196,3.6252136570132534e-05,36.42866666666666,0.029181424837654055,3.6805565539707456e-05,61.967,2.9003714129975373,8.530000000000008,-0.005150591674965188
S052,10717.0,10746.984375,N3,0.08116666666666647,61.85748707120173,-576.35,202.86,779.21,7.83,36.81702145333145,984.375,982.177734375,1.073494989767328,0.5733331819282746,2.0392843243539036,64.33273798507182,0.2792669167002324,66.87301398920195,0.096875,43,0.040056633333333334,0.044078803294390324,-4.3482529156502044e-05,36.47000000000001,0.013662601021279521,7.361113107939793e-06,59.382333333333335,0.6377757355755148,1.9200000000000017,-0.0004764931848126054
S052,10747.0,10776.984375,N3,-0.44274479166666664,45.70346946984115,-96.65,82.05,178.7,8.335,102.63427157176064,984.375,956.0628255208334,0.0,0.4568809849129202,0.07216126567549165,64.33093832625586,0.24400969269258543,64.70703207534712,0.2947916666666667,118,0.0004055833333333333,0.004424391821827668,1.2568861916466448e-06,36.489333333333335,0.010624918300339957,1.0833336272064286e-05,60.56766666666666,1.3478468838196065,3.5700000000000003,0.002300868679706131
S052,10777.0,10806.984375,N3,0.41894270833333364,90.21876479145965,-565.33,404.94,970.27,2.705,11.959266719212188,937.5,939.0218098958334,2.4204630740946156,1.4195249199164799,2.9787434139900153,64.46264722095944,0.27277267604864647,66.61080993352356,0.013541666666666667,7,0.22092574166666665,0.043402228441731694,-1.4328137350297655e-05,36.35466666666667,0.08464566668701227,-0.00013284725825934662,61.687000000000005,0.42720135767574513,1.6000000000000014,-0.0006267710033558493
S052,10807.0,10836.984375,N3,0.23576562500000028,70.64862162002633,-446.21,291.09,737.3,0.435,0.0,937.5,937.5,0.0,0.1529193630552463,0.2530285309999645,64.48567666541607,0.13921208071271415,64.52906321960671,0.0,0,0.22680672499999996,0.0032384136856453334,5.436187455563e-06,36.24333333333333,0.018135294011648786,-2.2638895030084876e-05,64.41133333333333,1.487146559317168,5.060000000000002,0.0023935423159565754
S052,10837.0,10866.984375,N3,-0.21841666666666637,66.60780622023384,-494.04,431.75,925.79,-3.27,0.0,937.5,937.5,0.04564354645876384,0.3621031712056969,0.22969635753896198,64.42256435601448,0.2209678600486903,64.96922348312314,0.003125,3,0.2518142583333333,0.022332176096197993,2.560559613867083e-05,36.224666666666664,0.013597385369579818,5.8333349157265775e-06,67.474,0.6211097594896852,1.980000000000004,0.001063055843927911
S052,10867.0,10896.984375,N3,-0.14926562499999982,60.40371827883288,-409.56,185.87,595.4300000000001,-0.16,215.4931960186078,531.25,687.59765625,0.45904773868181603,0.42969097220819313,0.8422382289916552,64.10684225941154,0.38495739191728506,67.11184694225007,0.21770833333333334,121,0.28473057500000004,0.023370943470351707,2.0673669019549978e-05,36.221999999999994,0.017397317800932392,-1.0416669492375919e-06,64.38066666666667,2.304664738211516,7.409999999999997,-0.00414027890090031
S052,10897.0,10926.984375,N3,-0.04311979166666668,62.84602058475792,-275.74,433.31,709.05,-4.78,0.0,406.25,406.25,0.1529193630552463,0.2542840405213998,0.3657184709581948,64.06084929235087,0.22193379502670998,65.21502894272147,0.228125,123,0.2973358083333333,0.0015211538290380883,1.0811437394595686e-06,36.16333333333332,0.017384539747207373,-1.6319448871378605e-05,61.60466666666666,0.49295526053475597,2.1700000000000017,0.000781736323170661
S052,10927.0,10956.984375,N3,0.017015624999999566,101.54101062860721,-887.09,508.61,1395.7,-1.08,42.240356958770285,406.25,421.0693359375,1.7815009569804394,0.6648934751772899,1.9755995815440999,64.36572695030429,0.45192457948011805,66.88049042882386,0.24895833333333334,130,0.14043866666666666,0.09638516278542161,-0.00010956383397456436,36.248,0.08692525524840461,0.0001381944819321005,66.79166666666667,1.9999984722216384,5.849999999999994,0.003264896718993249
S052,10957.0,10986.984375,N3,0.17506770833333268,109.30974523208691,-757.24,403.57,1160.81,1.74,0.0,546.875,546.875,1.9991306704415297,1.882428571390928,4.161087410461357,64.39883846594934,2.2725765634110893,95.42536350467836,0.007291666666666667,3,0.18301428333333333,0.11292753060924982,0.00014941819200797306,36.361000000000004,0.021189620100415835,3.017361929622706e-05,67.45533333333333,0.7051228419376445,2.6299999999999955,-0.0003350000908745884
S052,10987.0,11016.984375,N3,-0.24779687500000058,164.35565715497643,-1266.3,866.6,2132.9,-4.775,0.0,546.875,546.875,0.20832291640623696,0.25523809350290955,0.4840511910485869,64.01596581422307,0.28664008597806506,65.70388116390082,0.278125,110,0.4147415,0.004612009189785582,-3.2193311684383538e-06,36.22,0.05409867527644871,-8.354168932879982e-05,62.88866666666666,1.676881497171329,5.009999999999998,-0.0008083335526078446
S052,11017.0,11046.984375,N3,0.6731093750000006,110.71965196108535,-737.62,972.39,1710.01,-5.595,0.0,546.875,546.875,0.1015291077584267,0.3066890277173643,0.5115166718256166,64.19230425728445,0.2853199494478714,64.97691897897283,0.014583333333333334,14,0.4012397083333334,0.006869411200381773,-8.926380676644064e-06,36.182333333333325,0.021398338460940348,2.0729172289816356e-05,69.33866666666668,1.1702328353318787,5.1499999999999915,0.001848889390432234
S052,11047.0,11076.984375,N3,-0.3602656250000009,145.84523697828584,-1168.4,881.54,2049.94,-4.5649999999999995,36.43507442612818,546.875,558.59375,0.962851667357612,0.35568150302935664,1.1142965947366377,64.02922347679929,0.3357195626696398,66.24198064671678,0.28020833333333334,147,0.394152775,0.02654284344805033,-2.518372861971806e-06,36.211666666666666,0.02161532378249781,1.690972680927886e-05,71.975,1.0214621872590293,4.0,-0.0008773960713422511
S052,11077.0,11106.984375,N3,-0.29756250000000023,114.84599231777496,-1029.66,478.99,1508.65,-0.5,0.0,671.875,671.875,0.4366944468739619,0.49648831913919855,0.644282411981647,64.09975451467464,0.289777774248192,65.42935121182236,0.05625,46,0.34586693333333335,0.011926246418951592,-8.448738837005981e-06,36.172666666666665,0.03021405118299942,-2.180556147069438e-05,66.292,0.9206208050368329,3.5,-0.0006732640715234575
S052,11107.0,11136.984375,N2,0.09310416666666654,83.33992266583574,-412.55,423.16,835.71,-1.02,0.0,671.875,671.875,1.980621997823888,3.8110561929149713,3.2718136468831105,64.25791606060577,2.7301203053119787,115.34296684236972,0.014583333333333334,5,0.3485886916666667,0.055482659418025354,2.6304711779706973e-05,36.18133333333333,0.038792897402603665,2.3472228589472683e-05,68.03866666666667,1.3607344422120813,3.549999999999997,0.002372153421265578
S052,11137.0,11166.984375,W,-0.0317968749999998,111.58067760057065,-486.29,775.96,1262.25,-4.26,81.25,468.75,509.375,0.8820099904558274,0.8880713878571673,0.9785104183854606,64.26774215358074,0.48843472528052156,68.33739825307956,0.19166666666666668,107,0.39226363333333325,0.049593184709516513,5.084473818487907e-05,36.24366666666666,0.029493878837632194,3.9826399692492165e-05,68.81633333333335,0.5200671965129984,1.9300000000000068,0.00015253476359992636
S052,11167.0,11196.984375,W,-0.5208281250000002,140.87176987790338,-1167.02,703.51,1870.53,-5.835,0.0,468.75,468.75,5.22401711498999,2.4413411241313656,6.994566033218613,64.27549879760663,1.2263785381641945,76.3740793725201,0.023958333333333335,12,0.32909932499999994,0.11616268469336172,-0.00018035047318534967,36.26966666666667,0.027384099198054297,-1.9965283193708304e-05,70.53966666666666,0.5412792460664102,1.4500000000000028,-0.00040399316514571287
S052,11197.0,11226.984375,W,0.7047552083333334,110.70694650904588,-931.83,459.52,1391.35,-5.41,0.0,468.75,468.75,2.5393669155120575,1.004101290230058,7.313190776370955,64.66534606409851,0.8969262755169295,76.0920495189872,0.013541666666666667,6,0.06936551666666668,0.09517422021272211,-0.0001378259922488043,36.22666666666667,0.02981423969999767,4.79166796649054e-06,69.88166666666666,1.2982169395837595,4.280000000000001,-0.0018333685528886053
S052,11227.0,11256.984375,W,-0.2703593750000002,75.44666203908295,-777.27,391.46,1168.73,2.73,96.43586278077652,984.375,1021.8912760416666,1.1103599891726808,0.875589459188304,4.09323629092352,64.6724156236627,0.8319850160292112,82.32253640407346,0.014583333333333334,6,0.0004376083333333333,0.003378563327056421,-3.2937140011159933e-07,36.3,0.04389381125701692,7.29861309098657e-05,62.312,1.876577380942941,6.300000000000004,-0.0032249314303741945
S052,11257.0,11286.984375,W,-3.4115468750000013,134.9105667329321,-1064.97,531.23,1596.2,3.8,211.88120722547538,984.375,875.0162760416666,11.266605751730669,3.2060056491251268,3.4038370658469144,64.62094676891508,0.7898504219431436,69.0941386804988,0.036458333333333336,16,0.023214333333333333,0.03283862676847022,2.396952342923271e-05,36.389333333333326,0.015902480589168783,9.930558249392278e-06,58.891333333333336,0.7215803643546731,2.1299999999999955,-0.0009750002644857485
S052,11287.0,11316.984375,N1,2.765890625,214.22969075644633,-1090.78,1008.79,2099.5699999999997,23.945,0.0,531.25,531.25,22.28806980327268,29.10435934080819,23.737476938691913,65.21733425107624,5.92648897043873,99.74968671630002,0.10208333333333333,41,0.07801083333333333,0.08371710812754397,2.1435677255771816e-05,36.364,0.04461688768467114,-6.562501780192325e-05,64.17466666666667,4.046433601196107,12.93,0.007119446375717876
S052,11317.0,11346.984375,W,0.6894270833333336,181.7057253721112,-760.56,1467.78,2228.34,0.5800000000000001,144.4947480167956,531.25,634.521484375,9.05616582997079,9.393980554574414,8.084965470963168,64.9020489614554,1.824622957813275,94.10632284814874,0.041666666666666664,22,0.21016715833333333,0.06946311442880986,0.00010393177927836892,36.37633333333333,0.026392338955756565,3.927084398623173e-05,84.03433333333332,6.070942092368274,18.14999999999999,0.010748718193554196
S052,11347.0,11376.984375,W,-3.680791666666665,200.14727181294512,-1301.63,1145.9,2447.53,4.28,99.21433613355089,906.25,933.7483723958334,5.513047871331903,8.950313997828358,4.869418880562136,64.87562380000398,1.2931305271927975,73.824115301167,0.07083333333333333,32,0.25241186666666665,0.04959964133605761,-2.1877178677620087e-05,36.432,0.014000000000002188,9.930558249393437e-06,87.08800000000001,3.299039658243997,10.680000000000007,-0.005696320989670407
S052,11377.0,11406.984375,W,3.4116354166666674,226.38970213746012,-1095.02,1363.92,2458.94,5.585,0.0,1046.875,1046.875,31.804806630859886,8.452407355550646,14.935831351475626,63.90148628204069,2.4870600340224316,76.58328799418317,0.109375,55,0.058318699999999994,0.08430499646112323,-7.186325300109944e-05,36.392666666666656,0.021123972690340633,-2.4444451075427016e-05,72.209,3.71181837738145,11.439999999999998,-0.006478855924168814
S052,11407.0,11436.984375,N1,0.8640989583333346,147.09632873357668,-729.37,542.82,1272.19,3.7750000000000004,0.0,1046.875,1046.875,10.273301712769719,7.80851120395061,5.359398283072198,64.82097197632655,2.3540586322962693,99.70456358662827,0.04479166666666667,21,0.23498249166666665,0.14992370026383395,0.00023160256304322998,36.407666666666664,0.07241930374945207,-7.267363082509294e-05,71.68266666666666,1.3086046852362327,4.5,0.002139306135879484
S052,11437.0,11466.984375,W,-0.5385156249999999,34.946825398780945,-72.95,125.71,198.66,-3.13,0.0,1046.875,1046.875,0.11557806855349138,0.48765577995367004,0.07902948640996107,64.96948628915185,0.3955708832953917,65.87108622149782,0.0010416666666666667,1,0.37015926666666665,0.007147394456179277,1.2608608889054062e-05,36.371,0.016401219466855934,1.9895838730423928e-05,69.22333333333333,2.3160387638283515,7.280000000000001,-0.004168612241919555
S052,11467.0,11496.984375,W,0.2522500000000002,85.37758950221266,-450.43,607.34,1057.77,-3.38,79.21460983757089,1109.375,1073.5758463541667,4.572785092070684,2.6628616652511052,3.729851979627416,64.90699613161236,1.7137857229513775,79.68688725254614,0.052083333333333336,27,0.2977305333333334,0.09175223781293959,5.0091702390327255e-05,36.39799999999999,0.017587874611030185,1.9722227572218626e-05,62.731,1.4482411171256444,4.3600000000000065,-0.002468924280849686
S052,11497.0,11526.984375,W,0.35819270833333317,103.27747954042682,-345.24,661.49,1006.73,-5.22,0.0,1109.375,1109.375,16.131071073957102,2.2845258063156617,5.626180335265708,65.18005998327892,1.4217028203861324,80.06247560499239,0.07291666666666667,27,0.35569700000000004,0.022860864135387942,-3.841356944812539e-06,36.38899999999999,0.03552933060632114,5.815973799905946e-05,61.548333333333325,0.7140031901578284,2.1200000000000045,0.0011375350307983487
S052,11527.0,11556.984375,W,-0.6684062499999998,166.9721101242209,-623.07,928.09,1551.16,-3.885,0.0,1109.375,1109.375,11.49313422577137,3.0149792414523997,6.479131832703788,65.36674976620715,1.658156607619148,78.28793010419933,0.057291666666666664,21,0.4020723333333334,0.035450022475858725,5.093723560580392e-05,36.41,0.032249030993195565,-4.6250012546120284e-05,64.81233333333333,2.232686996025691,6.299999999999997,0.00397545246729939
S052,11557.0,11586.984375,N1,-0.3919791666666665,34.83673314907077,-101.02,63.0,164.01999999999998,2.51,46.98824166826646,1046.875,1034.4075520833333,0.1701587290019397,0.0,0.1504622507105649,65.29306288914513,0.09843045330626449,65.81793068761733,0.009375,9,0.4462810166666666,0.005887373239942314,1.0221461106082108e-05,36.37,0.015055453054180512,-2.7083340680148624e-06,67.59866666666667,0.8563244452633335,2.469999999999999,-0.0014463892812470929
S052,11587.0,11616.984375,N2,0.4091822916666665,161.8932061316068,-781.5,1114.52,1896.02,1.005,60.1163899968705,921.875,938.6555989583334,13.503785115907215,2.7885173467374296,5.02194133261868,65.14721836990422,0.7907941139641391,70.43436661176133,0.06666666666666667,37,0.4320428833333333,0.03566382152971068,-1.5729539857188517e-06,36.354,0.053078558131633695,-4.611112361955277e-05,63.79366666666667,2.349389258698713,6.920000000000002,-0.00418774419155387
S052,11617.0,11646.984375,N2,0.3485104166666668,48.48348361996047,-216.01,378.48,594.49,1.355,104.45765097858951,1015.625,967.7897135416666,16.659325336271042,7.748467520415282,11.542263635283543,65.22424467873228,3.3910098430306768,83.16850365372699,0.06354166666666666,24,0.3950173,0.08206808411014602,-7.421476014940325e-05,36.24733333333333,0.1350045266730804,0.0001769444924437123,60.925000000000004,0.45079744157807006,1.3700000000000045,0.0006012154408679042
S052,11647.0,11676.984375,N2,-1.7985833333333332,158.4883749761363,-867.44,1522.25,2389.69,-4.51,0.0,1015.625,1015.625,12.414598847322074,19.91924427074753,12.54151331405414,64.50130099263765,2.831718310583478,80.92589202474076,0.078125,30,0.3352897166666667,0.051741798764503626,4.77913102732504e-05,36.47533333333334,0.02591438896743581,3.590278751703165e-05,62.92133333333333,1.1006959414641062,4.069999999999993,0.0019454171943948542
S052,11677.0,11706.984375,N2,1.5961406249999999,150.64194875477574,-977.4,852.87,1830.27,-1.6549999999999998,100.03821914200186,1015.625,955.76171875,14.078356762181583,6.659859806248844,19.731082602323735,64.83578110713164,1.0885907838938125,78.79720807236764,0.022916666666666665,10,0.3069095416666666,0.024382201159143333,3.033919442794992e-06,36.55566666666667,0.025907956735764882,3.4201398166612535e-05,65.18766666666667,1.139253215439345,4.079999999999998,0.0013012156307551045
S052,11707.0,11736.984375,N2,0.0772968749999998,65.0135324441781,-221.74,170.1,391.84000000000003,10.035,44.839321335740195,968.75,965.9586588541666,0.4699106002445808,0.39921662657078244,0.3997340695873807,64.81136471647726,0.40891554274703434,65.49045732013177,0.08333333333333333,66,0.3281386,0.005849683662957058,1.0399683810678122e-05,36.577333333333335,0.016719914938647624,6.041668305573744e-06,66.51233333333333,0.8509550843349822,2.930000000000007,-0.00150218790749455
S052,11737.0,11766.984375,N2,0.3155833333333333,67.00802089483808,-129.18,126.7,255.88,9.995000000000001,32.18633124936301,937.5,941.6259765625,0.46308966726818207,0.2494438257849294,0.41197356981027583,64.81800616230926,0.44725325730648213,65.3299318842443,0.034375,24,0.34596303333333334,0.004991180079121789,8.748692043373487e-06,36.58800000000001,0.010770329614269724,7.638890961074836e-07,65.04566666666666,0.7310343509180817,2.549999999999997,-0.0006421182297412731
S052,11767.0,11796.984375,N2,-1.0452760416666669,71.34207726486149,-145.9,137.07,282.97,10.195,38.15006172388499,953.125,952.7587890625,0.42163187438807326,0.12447371850001998,0.48946807153843597,64.9087815768211,0.4096126778596541,65.3299318842443,0.009375,7,0.36190891666666664,0.004329861147857078,7.5656704550972355e-06,36.58733333333335,0.009977753031397661,1.3888892656488891e-06,63.198,0.15157836257197113,0.45999999999999375,0.00019236116329241542
S052,11797.0,11826.984375,N2,0.2623072916666667,74.39925407919752,-132.69,176.94,309.63,9.934999999999999,42.94594515971619,937.5,943.5872395833334,0.4564164460470528,0.10699797992641419,0.4683748498798799,64.88832984562355,0.4442501310005183,65.49045732013177,0.0010416666666666667,1,0.37755593333333337,0.004321792021706841,7.377210768557606e-06,36.60200000000001,0.014236104336040846,1.3472225876796282e-05,63.452,0.06749814812274514,0.20000000000000284,7.041668576841602e-05
S052,11827.0,11856.984375,N2,0.42540624999999965,72.3625232037848,-127.12,137.41,264.53,11.33,40.85169654990044,937.5,957.1044921875,0.46837484987987976,0.1476045709827443,0.4249068014642218,64.87338033407029,0.4549989352329154,65.49045732013177,0.004166666666666667,4,0.3900435666666667,0.0034563650987063784,5.9315884146018895e-06,36.60800000000001,0.014922019523732654,-5.208334746184087e-06,63.15866666666667,0.18465703946024414,0.5799999999999983,-0.00031291675155076774
S052,11857.0,11886.984375,N2,-0.5324062500000001,69.94924199644073,-141.45,132.36,273.81,8.795,29.338023358071517,921.875,921.8180338541666,0.4330127018922193,0.16598493384608404,0.38947608817986357,64.94898278179876,0.4213695246170424,65.22269543648132,0.0,0,0.401677425,0.003527806869861453,6.004945856376371e-06,36.614000000000004,0.013063945294843919,3.4722231641235797e-06,63.465333333333334,0.1834799413802194,0.6799999999999997,0.00032083342036496796
S052,11887.0,11916.984375,N2,0.09947395833333322,69.02736858474105,-137.14,135.47,272.61,8.89,50.75218477437486,953.125,944.4986979166666,0.4268291926780808,0.18742764807756854,0.33306629928922893,64.96528681387967,0.4133814102671793,65.22269543648132,0.0,0,0.41289505833333334,0.0034129934668748717,5.8622153489082435e-06,36.616,0.011718930554165412,1.0763891808781913e-05,64.53466666666667,0.31062016819403127,1.0499999999999972,0.000358958430707038
S052,11917.0,11946.984375,N2,0.39331249999999984,66.24578697505231,-125.65,128.34,253.99,8.665,55.19478109754414,906.25,920.7682291666666,0.42490680146422166,0.21137108216357317,0.318518434404597,64.96763310093155,0.4112775981547048,65.22269543648132,0.0,0,0.42478503333333334,0.003532833968486048,6.062392269529151e-06,36.62733333333334,0.011234866364235468,1.9444449719085383e-06,64.17333333333333,0.14385949935807338,0.5399999999999991,1.652778226122582e-05
S052,11947.0,11976.984375,N2,0.2685625000000003,65.98800912473487,-114.05,130.79,244.83999999999997,8.23,50.76271697067437,937.5,938.671875,0.4030913530316532,0.2599996661322642,0.24393467007354425,64.9999380370082,0.39361171869810907,65.22269543648132,0.0,0,0.43551169166666664,0.002892140057684606,4.791909503013655e-06,36.63066666666667,0.014126413400277675,-1.1736114294735528e-05,64.372,0.05268775948927964,0.15000000000000568,6.652779582460098e-05
S052,11977.0,12006.984375,N2,-0.3372760416666662,63.32108155009516,-112.58,122.2,234.78,7.8,22.25207982004485,937.5,947.7294921875,0.41894688572127553,0.3247177593909654,0.23825719937822562,64.96678639914677,0.40440075128557934,65.22269543648132,0.0,0,0.44584342499999996,0.003378103922475103,5.556145821437128e-06,36.62800000000001,0.013999999999999953,1.4583337289321996e-06,64.46266666666666,0.20333770487104136,0.7199999999999989,-0.0002893056340347334
S052,12007.0,12036.984375,N2,0.033765624999999695,62.60820192905094,-109.58,121.19,230.76999999999998,7.59,24.878970544412912,937.5,927.7913411458334,0.431803187870997,0.34655421854146995,0.15612494995995996,64.94770601105306,0.4128969627204809,65.22269543648132,0.0,0,0.4565059166666667,0.0029097075499762647,4.794333331796147e-06,36.63533333333333,0.01359738536957982,8.194446667329723e-06,63.89433333333333,0.16501885414164716,0.46999999999999886,0.00023711811987796208
S052,12037.0,12066.984375,N2,-0.5916770833333334,61.31057711731496,-111.06,121.8,232.86,5.029999999999999,53.93666071488675,937.5,931.4127604166666,0.38436088501635485,0.45780153807505813,0.16015603827899283,64.97243352953326,0.3771687293280153,65.39877674696982,0.0010416666666666667,1,0.46596250833333325,0.003125465986579266,5.282395747177668e-06,36.631,0.015567059238446949,-2.5347229098104962e-06,64.48566666666666,0.198489014529491,0.5499999999999972,0.00028190979869514523
S052,12067.0,12096.984375,N2,0.8097656249999999,60.77281398781162,-114.08,131.92,246.0,7.84,43.905626249577566,937.5,948.876953125,0.3903123748998999,0.47495887979908324,0.12903218806001684,64.95669550936792,0.38269897212205983,65.39877674696982,0.0020833333333333333,2,0.4754830916666667,0.0033234805174591512,5.5526354038181955e-06,36.64066666666666,0.012092238098142898,1.5277781922132648e-06,64.34833333333333,0.23197820778876832,0.6900000000000048,-0.0004081598329426633
S052,12097.0,12126.984375,N2,-0.6554010416666666,58.570130939555405,-102.23,118.19,220.42000000000002,4.87,26.59070879467143,937.5,931.4127604166666,0.3754496725224597,0.49010942478582153,0.12489144591960209,64.9605797397892,0.3667944980853143,65.39877674696982,0.0020833333333333333,2,0.4856332916666667,0.003702311384787966,6.3539962982845925e-06,36.64166666666666,0.011571036638471534,2.8819452262216705e-06,63.61533333333333,0.18929224906359848,0.5700000000000003,-0.00020861116770051137
S052,12127.0,12156.984375,N2,0.3147708333333332,55.33912663776702,-96.75,109.78,206.53,5.8100000000000005,51.301918094065535,921.875,939.453125,0.38349181506548774,0.4999121016488799,0.11599041357658256,64.92960258372143,0.3719878851030935,65.39877674696982,0.0010416666666666667,1,0.49574095833333337,0.0029685059609053446,4.882264996274144e-06,36.646333333333324,0.012512216252747172,-2.673611836374379e-06,64.22766666666666,0.31741333025287627,0.9499999999999957,0.0005555904284913254
S052,12157.0,12186.984375,N3,0.10411979166666677,54.94237006813958,-94.45,110.06,204.51,3.33,29.420092267075372,921.875,927.4576822916666,0.3621031712056969,0.4997221450188317,0.12827311899051788,64.94670037581393,0.35069259223822746,65.39877674696982,0.0010416666666666667,1,0.5050479250000001,0.003022564331166766,4.945514145375995e-06,36.64499999999999,0.011180339887496723,6.597224011832462e-07,64.07766666666667,0.11884677343350802,0.46999999999999886,-7.684029862204131e-05
S052,12187.0,12216.984375,N2,0.0817708333333333,53.0498853742241,-92.63,108.54,201.17000000000002,5.71,29.535159256507566,937.5,931.8196614583334,0.3421680772011842,0.4933542717966472,0.14994211846205485,64.95020727596612,0.3381195188667636,65.39877674696982,0.005208333333333333,5,0.5140028499999999,0.0028733671062883743,4.803521702344219e-06,36.646999999999984,0.010999999999997812,3.3680564691986758e-06,64.02133333333333,0.12687876978526588,0.38000000000000256,-0.0001730556024998934
S052,12217.0,12246.984375,N2,-0.5185989583333334,54.1545633625182,-126.23,146.22,272.45,3.4299999999999997,37.34162051887501,921.875,921.923828125,0.3518906647391425,0.48594726901577384,0.21404665898402203,64.93640882793194,0.35398945137440385,65.39877674696982,0.005208333333333333,5,0.5236407916666667,0.0029065829992617176,4.665918149391864e-06,36.64466666666666,0.009910712498210367,9.027780226718102e-07,64.922,0.2910486786318282,0.980000000000004,0.00043083345020438466
S052,12247.0,12276.984375,N3,0.44710416666666675,69.57064874366307,-148.11,415.43,563.54,2.885,46.07234752492378,921.875,929.3863932291666,0.49344553728237217,0.3911440995301121,0.3465542185414699,64.81265520161834,0.4620343235484312,65.39877674696982,0.05625,48,0.5324249416666667,0.0026793751177461547,4.333617277999479e-06,36.64966666666666,0.010796089827132283,7.048613023168363e-06,64.90166666666667,0.07439011284363702,0.21999999999999886,4.8993068845776834e-05
S052,12277.0,12306.984375,N2,0.23355729166666653,63.36159485857943,-147.8,172.72,320.52,3.1950000000000003,30.551347418687183,906.25,903.4749348958334,0.49716972391226727,0.3560473960919935,0.38522517765587444,64.79248767355266,0.4701500532045391,65.39877674696982,0.0625,54,0.5412408999999999,0.0031136465930909174,4.9098307589601745e-06,36.646999999999984,0.010049875621118892,-6.2152794637789994e-06,64.74233333333333,0.12230244841739264,0.45000000000000284,0.00012524308952991872
S052,12307.0,12336.984375,N2,-0.27147916666666677,60.710329803876036,-115.93,121.97,237.9,2.685,27.68938836670625,906.25,901.7903645833334,0.4915254034352875,0.40385377708260806,0.40536629311922595,64.81931806574973,0.4762759961459101,65.39877674696982,0.084375,70,0.5499077166666666,0.0026282040483421804,4.258114436337469e-06,36.648999999999994,0.008306623862916421,-1.0069447175954804e-06,65.53400000000002,0.26323120382406445,0.9900000000000091,0.00044361123144835815
S052,12337.0,12366.984375,N3,-0.10838541666666665,60.725646265579485,-123.28,138.96,262.24,2.2199999999999998,45.41473839542305,890.625,906.9498697916666,0.49264997011626366,0.4261919050504778,0.4564164460470527,64.82061873402436,0.4753194766857554,65.39877674696982,0.115625,91,0.55893735,0.0030685270887131993,4.968044750446177e-06,36.64499999999999,0.010567244989430253,1.7013893504206156e-06,66.46533333333333,0.12414328638937909,0.480000000000004,0.0001195139213091145
S052,12367.0,12396.984375,N3,0.37670833333333337,59.35991301478855,-99.46,134.61,234.07,3.4050000000000002,25.582520545531963,906.25,915.13671875,0.4956746507286812,0.4480753110527292,0.470287986164388,64.7978149117424,0.4813775339992352,65.39877674696982,0.11041666666666666,90,0.5665899166666667,0.002671608272131634,4.1627745667248515e-06,36.65033333333333,0.0048189440982660285,1.00694471759548e-06,66.23233333333333,0.13780864349605204,0.4299999999999926,-0.0001737153249010732
S052,12397.0,12426.984375,N3,-0.6105625000000001,58.031783588430464,-94.27,118.44,212.70999999999998,1.62,36.06144636125639,906.25,902.294921875,0.49607837082461076,0.47066276408910873,0.47981726664950275,64.78649490761845,0.48161456075357,65.39877674696982,0.09791666666666667,76,0.5755021416666667,0.002817476211954687,4.300576904453361e-06,36.65099999999999,0.008306623862917247,-3.125000847711345e-07,65.81766666666665,0.05457003654835725,0.18000000000000682,4.409723418435509e-06
S052,12427.0,12456.984375,N3,-0.08238020833333332,58.73067013486955,-99.71,122.29,222.0,0.955,33.01607789656074,890.625,905.0455729166666,0.49352469367184537,0.4746149298086,0.48693766534388727,64.80528021059081,0.46951942821783155,65.39877674696982,0.10104166666666667,77,0.5833149416666666,0.002760608686793047,4.3427800409017044e-06,36.648333333333326,0.007781745019950953,3.6458343223284634e-06,65.921,0.1342969346882748,0.480000000000004,1.6319448871379218e-06
S052,12457.0,12486.984375,N3,-0.2089583333333336,56.22068814204368,-94.61,113.52,208.13,0.16999999999999998,24.264821630070745,890.625,885.6119791666666,0.4988876515698588,0.48789046862487484,0.4987440823931871,64.76230850955368,0.4880452643538021,65.39877674696982,0.115625,90,0.5911385583333332,0.0027264714216847907,4.009428822002173e-06,36.65433333333332,0.006674994798166511,-2.430556214886382e-07,66.479,0.17737624794017232,0.6899999999999977,0.0002919792458711077
S052,12487.0,12516.984375,N3,0.38069270833333313,55.42749701646051,-89.88,113.9,203.78,2.01,30.87388675242557,906.25,911.3525390625,0.4949572091493252,0.4933542717966472,0.49798966515101717,64.80505619153203,0.4781739701283116,65.39877674696982,0.13541666666666666,110,0.59931415,0.0028503529508056794,4.568672246276101e-06,36.65533333333333,0.0066999170807467995,3.402778700840516e-06,67.194,0.1718448913022055,0.480000000000004,0.00018055560453439585
S052,12517.0,12546.984375,N3,0.39816145833333344,54.11712927573716,-89.48,110.93,200.41000000000003,0.48,31.919677896106723,906.25,896.5738932291666,0.49300664859163457,0.49738792532980625,0.49808225977241954,64.80902120317091,0.48103605576222386,65.39877674696982,0.128125,105,0.6106919000000001,0.0037861764362832656,5.555518868142056e-06,36.655666666666654,0.006674994798166464,1.909722740268006e-06,66.81633333333333,0.12370619314416943,0.46999999999999886,-0.00013822920416373623
S052,12547.0,12576.984375,N3,0.0556406249999999,52.90257878782565,-89.69,109.53,199.22,2.73,27.074641275656543,906.25,905.615234375,0.49031859682138185,0.4999305507323548,0.49607837082461076,64.81538178604907,0.4717350195810259,65.39877674696982,0.11354166666666667,94,0.6237878833333333,0.003770371717269908,6.038339745643368e-06,36.65299999999999,0.006403124237431574,1.041666949236702e-07,66.22800000000001,0.14677420300130137,0.45000000000000284,-5.104168051260964e-05
S052,12577.0,12606.984375,N3,-0.693609375,53.96304425294527,-96.1,108.72,204.82,0.755,22.707579188991993,906.25,897.5016276041666,0.49264997011626366,0.4997872811395753,0.49539436976738255,64.80600020722393,0.47658032686852797,65.39877674696982,0.115625,96,0.6326040333333334,0.002904653103020893,4.25661009565162e-06,36.655333333333324,0.008055363982395503,3.1250008477107283e-06,66.53866666666667,0.06926920110858684,0.19999999999998863,-6.722224045741972e-05
S052,12607.0,12636.984375,N3,0.6907031249999999,51.68415778871251,-107.83,131.12,238.95,-0.18,83.07441183915113,859.375,878.9469401041666,0.4994256684071103,0.49998263858747016,0.42096609910683097,64.73319601452377,0.4839081303060064,65.39877674696982,0.22916666666666666,139,0.6413241833333333,0.002781394134792034,4.12497420924864e-06,36.658999999999985,0.008306623862918219,9.756947091185692e-06,67.20366666666666,0.4290958193949486,1.1700000000000017,0.0006626043464095998
S052,12637.0,12666.984375,W,-1.5511562499999998,49.01516892563892,-150.28,158.17,308.45,-3.0300000000000002,123.96382017841464,843.75,858.447265625,0.3350201460567541,0.4994778089136916,0.30703379010116927,64.48018333592805,0.33027558963186776,65.58963332722634,0.12708333333333333,95,0.6507806416666668,0.003795045864448015,5.974476664083318e-06,36.66199999999999,0.008717797887082058,-3.0555563844285773e-06,68.67533333333334,0.5865192996729852,1.9499999999999886,0.0002606945151623582
S052,12667.0,12696.984375,W,0.6126041666666668,50.14288967218233,-233.18,227.69,460.87,1.385,88.93509018433797,1015.625,988.8509114583334,0.19895287950640192,0.4562024328324239,0.5005368211980014,64.48482634777272,0.22565659218455955,66.06057825965497,0.036458333333333336,28,0.6640901583333334,0.0036113088785919584,5.990392467011819e-06,36.65999999999999,0.008944271909999498,-1.6666671187790715e-06,68.29733333333334,0.5474786652362708,1.980000000000004,-0.000838958560915408
S052,12697.0,12726.984375,W,0.7728906249999998,53.05100885123554,-293.59,192.24,485.83,1.3399999999999999,83.77857117870268,1000.0,954.8909505208334,0.1766661753137821,0.3780991726716682,0.5311110929509527,64.5804208608142,0.18672557434655704,65.76473218982953,0.03125,21,0.5359945916666667,0.054700176229529614,-5.8608529136428235e-05,36.654666666666664,0.006699917080746822,-2.708334068015652e-06,65.602,0.6805458593413576,2.269999999999996,-0.000884653017755267
S052,12727.0,12756.984375,W,-0.26434895833333355,51.33792660719894,-170.14,203.32,373.46,0.095,45.06318280858916,1062.5,1050.5289713541667,0.1675465057744333,0.3348127975078014,0.3415396105220529,64.654895411129,0.1604661209447804,66.53570470055908,0.075,41,0.5204494,0.002945393517568302,4.347015068092208e-06,36.65499999999999,0.006708203932498035,-1.7708338137023961e-06,63.498000000000005,0.5661825382919073,2.210000000000001,-0.0009158335817690931
S052,12757.0,12786.984375,W,3.460859375,85.40319054552484,-428.99,363.22,792.21,-3.525,94.7180294287878,828.125,837.0198567708334,24.888689700343807,12.121675473136609,20.338004260932497,64.70705761216955,2.636843790475974,114.76497723608888,0.03125,9,0.4943852916666666,0.03776201160478518,-4.097342496023897e-05,36.65233333333332,0.008825468196580727,5.243056977824743e-06,61.64433333333333,0.5606584422702376,2.0800000000000054,-0.000951284980274789
S052,12787.0,12816.984375,W,-3.9962447916666672,234.12809711404174,-1963.05,1814.28,3777.33,-6.015,0.0,734.375,734.375,11.914830132374247,9.528014250385835,8.425251139926534,64.08360210931328,1.6054150123521103,75.9012516365837,0.065625,23,0.4700396583333334,0.08609157819201364,0.00010983021881245085,36.65499999999999,0.009219544457291695,-2.881945226221621e-06,66.05566666666667,3.440080118576052,11.239999999999995,0.006133508608265139
S052,12817.0,12846.984375,W,-0.8485624999999994,238.38806883664031,-960.75,993.05,1953.8,0.09,0.0,734.375,734.375,22.26315151953104,14.590950949454083,9.528501652935786,64.68385293083642,5.133955916762199,99.71960689854328,0.090625,43,0.2976855666666667,0.1321696412858448,-0.0001777631350268921,36.64399999999999,0.014047538337135339,-7.083335254809883e-06,80.07033333333334,4.07298783313784,13.659999999999997,0.0073373978237298776
S052,12847.0,12876.984375,W,1.852244791666666,285.6716305976957,-1686.68,1637.78,3324.46,7.32,0.0,734.375,734.375,34.55081497018799,19.162177803154897,22.518603323912483,64.96785283173571,4.148917340776569,122.70696801730536,0.065625,23,0.3275303083333333,0.16529003019676233,0.0002253095174993266,36.486,0.05102940328869247,4.7916679664897666e-05,86.82000000000001,0.6568256998626044,2.0,-0.0009611808162925386
S052,12877.0,12906.984375,N1,0.8429895833333323,320.9051919695934,-2351.11,2014.03,4365.14,-7.165,0.0,734.375,734.375,11.261289859760984,15.093242852936156,14.775692628940632,65.13221874873226,3.998739076336872,102.1518477561713,0.057291666666666664,23,0.455001075,0.0330427134696296,1.479800292914576e-05,36.58133333333333,0.02171532996653743,3.2847231132605635e-05,83.41033333333333,1.3839496217549092,4.549999999999997,-0.002423299268473109
S052,12907.0,12936.984375,W,-1.7191250000000002,169.64724781410703,-774.34,666.33,1440.67,-5.795,0.0,734.375,734.375,5.589924494961895,4.381629897145074,6.804789134494217,65.15132694931404,1.5885045620289298,79.03163923391695,0.08020833333333334,41,0.44063485,0.03396070627888698,-5.288237979665239e-06,36.63433333333333,0.02044233080861495,2.8020840934470394e-05,78.852,1.1989478720945304,4.409999999999997,-0.0021049311265546695
S052,12937.0,12966.984375,N1,1.19559375,30.367080460411856,-93.63,96.94,190.57,1.01,0.0,734.375,734.375,0.0,0.20684625513624577,0.12801909579781012,65.20419800203203,0.07260334108835445,65.22269543648132,0.0,0,0.5075774666666667,0.01575136324943195,2.0118629589472e-05,36.690999999999995,0.020872629605938657,2.892361895714637e-05,79.10933333333334,3.3655370382088434,8.510000000000005,0.005749376559618206
S052,12967.0,12996.984375,W,-0.6160104166666657,84.57800926031182,-488.18,513.31,1001.49,-1.3650000000000002,0.0,734.375,734.375,0.39059583224436306,0.48717938174762687,0.5602230148689796,65.15832620070312,0.27161870842893826,66.46803743153546,0.16041666666666668,67,0.5132663249999999,0.00467838797230146,-6.035821732807541e-06,36.705000000000005,0.018027756377319317,1.4236114972909271e-06,98.11166666666666,7.443041530330339,23.0,0.013322468891728752
S052,12997.0,13026.984375,N1,1.921604166666666,168.93685052449325,-840.81,715.72,1556.53,-13.855,0.0,734.375,734.375,9.774732697396669,12.827698260597282,13.122370106890838,65.20917279670189,4.960493070573483,113.38871196022997,0.06875,36,0.4901480833333333,0.04202276335384259,-4.019676220615294e-05,36.711666666666666,0.01752775576684571,7.465279802864178e-06,101.63199999999999,3.869157014131115,10.280000000000001,-0.006730904603652505
S052,13027.0,13056.984375,N2,-1.9845572916666667,7.885319449765029,-63.87,47.51,111.38,-1.415,0.0,734.375,734.375,0.2582808246366733,0.1592592172022985,0.274808566576606,65.19292925379801,0.2575855378032796,65.42935121182236,0.0,0,0.4586833166666666,0.0033503462930054803,-4.874408440323475e-06,36.74,0.013416407864999777,9.375002543132731e-06,82.02866666666665,8.562911394821011,26.069999999999993,-0.015368615280114822
S052,13057.0,13086.984375,N2,0.00833854166666666,5.16368957238648,-14.91,22.26,37.17,-0.15,0.0,734.375,734.375,0.2363252195069329,0.24206145913796356,0.4977978850648122,65.15758119655781,0.24158355485076158,65.42935121182236,0.015625,15,0.476699825,0.005964731901857927,-7.448738348724596e-06,36.75333333333333,0.01164283279771714,1.090278073534804e-05,68.79033333333334,1.5991382748912684,4.920000000000002,-0.0027481604677084604
S052,13087.0,13116.984375,N2,0.009093750000000018,10.595179751678478,-94.29,50.57,144.86,0.375,0.0,734.375,734.375,0.2653920547196794,0.29035418983640576,0.47466636674850066,65.18070672121571,0.2766098145934281,66.24952830020754,0.007291666666666667,4,0.49507914999999997,0.011101682542637395,1.2270090568058418e-05,36.778,0.017587874611029643,8.888891300154537e-06,63.177666666666674,0.8535521203899747,2.739999999999995,-0.0014568406729711025
S052,13117.0,13146.984375,N2,-0.004791666666666498,38.08409245585043,-315.65,160.24,475.89,0.26,0.0,734.375,734.375,0.17151477402350307,0.1795508236235325,0.5108958210149654,65.10650324627676,0.17826022893375523,65.99242380758567,0.007291666666666667,4,0.5013763916666666,0.007705867343887851,1.2029382820470592e-05,36.797333333333334,0.013148721948877829,4.236112260230397e-06,64.59266666666667,2.1624075060501946,6.569999999999993,0.003760973242451509
S052,13147.0,13176.984375,W,0.03638020833333334,7.4654321690056875,-22.92,26.28,49.2,-0.56,0.0,734.375,734.375,0.0789470638395684,0.0,0.4977978850648122,65.09496976475224,0.09194015802098852,65.1536645170477,0.0,0,0.4985479750000001,0.005197911809022447,-9.061035227060335e-06,36.812000000000005,0.009451631252504438,4.7916679664894794e-06,70.41566666666668,0.566531454456757,2.549999999999997,0.0008898960747330927
S052,13177.0,13206.984375,W,-0.04241666666666673,7.093002772196617,-21.75,31.02,52.769999999999996,-0.835,0.0,734.375,734.375,0.032258047015004204,0.0,0.4930066485916346,65.09440120193905,0.057507921147807325,65.1536645170477,0.415625,183,0.4849714666666667,0.003953330068717031,-6.7185000863986745e-06,36.825333333333326,0.009568466729603705,1.0972225198627798e-05,69.84866666666667,2.2111983679042058,6.920000000000002,-0.00381013992245549
S052,13207.0,13236.984375,W,0.01818750000000003,19.163154819923147,-100.99,130.85,231.83999999999997,-1.085,0.0,734.375,734.375,0.09107288747664329,0.0,0.49190936806376123,65.08865191515271,0.10555504765642808,66.1362230551458,0.0010416666666666667,1,0.4722490916666667,0.00377480970821893,-6.173748853556002e-06,36.835666666666675,0.012023125864581024,5.520834830954111e-06,63.724,0.564432458315431,2.70000000000001,-0.0008821530170770996
S052,13237.0,13266.984375,W,-0.0034895833333333497,6.393612829246713,-17.65,18.5,36.15,-0.245,0.0,734.375,734.375,0.0,0.03225804701500421,0.48693766534388727,65.09225606468422,0.04865260779440632,65.1536645170477,0.3854166666666667,193,0.4610527916666667,0.0033499869350387896,-5.619904953316237e-06,36.83333333333334,0.007888106377467388,-6.319446158704692e-06,61.57633333333333,0.26296366457913645,1.0999999999999943,-0.00024371534388979563
S052,13267.0,13296.984375,W,-0.02317187500000005,7.1993391473078265,-19.05,35.88,54.93000000000001,-0.81,0.0,734.375,734.375,0.06441510347391795,0.0,0.4068625190098002,65.0706298800192,0.07638946841540493,65.1536645170477,0.209375,132,0.45269547499999996,0.0017644575463037677,-2.246091972138656e-06,36.830333333333336,0.006574360974439106,1.0763891808789884e-06,64.42466666666668,1.1440534175562882,3.6099999999999923,0.0019526394185762316
S052,13297.0,13326.984375,W,1.081208333333333,89.70935451442116,-717.31,443.88,1161.19,-1.05,0.0,734.375,734.375,32.594094290820365,18.474674123902023,12.76907746051798,64.94666088928459,2.604081283729687,90.13878188659973,0.04375,24,0.432160225,0.041820565906912056,-4.269638636512217e-05,36.82766666666667,0.012827920936596337,-5.451390367672799e-06,65.48533333333333,0.460179192151154,1.7199999999999989,-0.0005716668217412175
S052,13327.0,13356.984375,W,-0.8871510416666665,171.7176475192334,-409.08,1291.7,1700.78,-7.445,0.0,734.375,734.375,13.129532906070848,9.13516931202564,17.717883913528272,63.919640061787845,3.653398788090263,104.69479452198185,0.103125,61,0.3335926833333333,0.1030698319756225,3.0153346287257554e-05,36.809333333333335,0.015902480589168468,2.2847228419928788e-05,68.372,1.549585751096079,5.480000000000004,0.002746042411578344
S052,13357.0,13386.984375,N1,-0.3252343749999997,130.04190878227195,-503.25,492.56,995.81,-6.91,0.0,734.375,734.375,21.590007715601267,15.551845380798508,11.970359806158246,65.26111781346215,3.3917856758272844,85.47514258543241,0.10416666666666667,51,0.4638598666666666,0.01075956784055733,-9.320678309645801e-06,36.81966666666667,0.01852625764211946,2.434028438050147e-05,76.43433333333334,2.477012559964567,7.97999999999999,0.004331841452864974
S052,13387.0,13416.984375,N2,0.5387499999999998,241.33794506355605,-1107.69,1492.68,2600.37,1.54,0.0,734.375,734.375,1.2092937993124564,1.8646796413675342,2.4766704432311943,65.02538483620094,0.72266421707171,69.6491205974634,0.11875,67,0.46793708333333334,0.005812347524284444,-6.278929654657568e-06,36.84600000000001,0.013564659966248676,4.166667796948222e-06,75.784,1.6182430802159073,4.780000000000001,-0.0028914591176918184
S052,13417.0,13446.984375,N2,-0.3178020833333333,32.22257195504929,-97.04,97.09,194.13,-0.745,182.1070826469049,343.75,468.4651692708333,0.0,0.0,0.3146988612370386,65.07057062086194,0.14792140509828255,65.12296062065974,0.0,0,0.46035905,0.001609503742617584,-3.169093741616172e-07,36.848000000000006,0.01777638883463012,-8.055557740766239e-06,70.91833333333334,1.9331495602312363,5.609999999999999,-0.003454202325901238
S052,13447.0,13476.984375,N2,-0.3908229166666668,26.490807646039688,-81.46,96.0,177.45999999999998,-0.08499999999999999,0.0,343.75,343.75,0.0,0.05581428468591172,0.03225804701500421,65.12191840356799,0.018076846209030467,65.12296062065974,0.0,0,0.45682615833333323,0.001498623056874955,-1.655969416224348e-06,36.82966666666666,0.00982626864865607,-3.7847232488945168e-06,67.646,0.6149341428153104,1.8800000000000097,0.0008697919026128207
S052,13477.0,13506.984375,N2,0.21452604166666658,23.140539645562797,-78.15,64.86,143.01,1.61,0.0,343.75,343.75,0.0,0.194978186101819,0.10152910775842669,65.12098110692465,0.06044009347142104,65.60487786742691,0.010416666666666666,10,0.46128755,0.002384670993554456,-2.8681318544194455e-06,36.81666666666667,0.014681810363696382,-9.16666915328482e-06,74.01233333333333,6.247192267108659,19.44999999999999,0.010634412606991266
S052,13507.0,13536.984375,N2,0.19150000000000028,25.092813812756564,-84.98,109.16,194.14,1.3250000000000002,342.2415165722492,1031.25,713.4602864583334,0.0,0.33993463423951903,0.45825756949558405,65.24402641731565,0.22438847998864017,65.60487786742691,0.24791666666666667,143,0.45661265833333325,0.0016615636987279646,-2.214692224037603e-06,36.80266666666667,0.010934146311238933,-2.5694451414511277e-06,101.88766666666668,7.161878097879696,24.569999999999993,0.012880038216156202
S052,13537.0,13566.984375,N2,-0.06561458333333346,21.632122231220265,-76.56,48.06,124.62,1.545,0.0,1031.25,1031.25,0.0,0.48619840486049404,0.4622359888357894,65.20444565418009,0.23286318817654483,65.60487786742691,0.17395833333333333,127,0.4538056166666667,0.0017576770711336235,-1.8230074389668555e-06,36.78333333333333,0.015776212754931872,-1.4861115142445616e-05,121.06600000000002,2.99870038516688,9.800000000000011,0.004235695593450406
S052,13567.0,13596.984375,N2,0.19548437499999985,20.81482433904694,-75.27,72.75,148.01999999999998,2.7649999999999997,119.69154679750257,359.375,381.4208984375,0.07198059875565237,0.4287201864431962,0.4441447285858018,65.34128749635816,0.2293613995428913,65.92419889539804,0.16875,128,0.4513185666666667,0.0013130120508036273,-6.995822210238203e-07,36.758,0.013266499161423102,-1.0138891639240531e-05,121.33733333333333,0.5192426108178027,1.8799999999999955,0.0006001390516870252
S052,13597.0,13626.984375,N2,-0.2926562499999997,20.150058543302116,-75.86,63.16,139.01999999999998,1.125,0.0,359.375,359.375,0.0,0.3353843152100123,0.2263462809256845,65.42585578865342,0.12540995039513664,65.60487786742691,0.12395833333333334,106,0.44756180833333337,0.002223249649708861,-3.365676477234294e-06,36.72266666666667,0.01806162291219141,-1.5763893165118042e-05,122.37033333333332,0.3642479314362066,1.2800000000000011,-0.0005798265461769055
S052,13627.0,13656.984375,N2,-0.25249479166666666,20.886952326127698,-75.02,50.59,125.61,0.9299999999999999,0.0,359.375,359.375,0.05581428468591172,0.2699987139887069,0.16232629604869594,65.4274930600022,0.1042123634493421,65.60487786742691,0.078125,71,0.4425774666666667,0.001948528538553018,-2.61021815598366e-06,36.68533333333333,0.019102065042527327,-2.2430561640236597e-05,112.91766666666666,5.754716143207142,17.980000000000004,-0.010365454200698294
S052,13657.0,13686.984375,N2,0.28784895833333324,32.684742777404615,-138.19,247.57,385.76,0.72,0.0,359.375,359.375,0.05581428468591173,0.2200827456448041,0.13215215741081693,65.4281050629326,0.08865404963999689,66.09841147864296,0.05,47,0.4384682333333333,0.0014925364413939334,-1.5154782756831173e-06,36.653333333333315,0.011925695879996505,-1.3263892486947361e-05,102.85066666666668,1.229281452267498,5.019999999999996,-0.0014486115040721313
S052,13687.0,13716.984375,N2,0.3070833333333332,27.6492333949133,-110.28,136.77,247.05,0.885,0.0,359.375,359.375,0.15612494995995993,0.2157809420003434,0.12059963032005251,65.41364092440823,0.1456228436160457,65.92419889539804,0.04791666666666667,43,0.43645106666666666,0.0012455466252033925,-1.0446439465722539e-06,36.63,0.016329931618553884,-1.8194449380004795e-05,104.69333333333334,5.896349341376878,18.150000000000006,0.01052764174469448
S052,13717.0,13746.984375,N2,-0.364921875,17.53099109417082,-58.88,65.9,124.78,0.9299999999999999,0.0,359.375,359.375,0.17399263633843817,0.13928372696486196,0.0,65.40614589878918,0.15012328145560241,65.60487786742691,0.01875,17,0.43457232500000004,0.0014378231762082853,-1.027388950572092e-06,36.587333333333355,0.016110727964793615,-1.6527782261227477e-05,115.57966666666665,1.267976033772808,5.150000000000006,0.001835104664470666
S052,13747.0,13776.984375,N2,0.16918229166666687,23.76123694495448,-82.12,110.08,192.2,0.895,0.0,359.375,359.375,0.318518434404597,0.08507936450096985,0.19982631347136331,65.35358596997048,0.25708467932483775,65.92419889539804,0.015625,15,0.43366504166666664,0.0012317783783067115,-2.0705062040218852e-07,36.539,0.01955334583474936,-2.406250652737141e-05,120.843,1.0416530132438535,3.0600000000000023,-0.0014478823372076645
S052,13777.0,13806.984375,N2,0.10140624999999999,17.607175608776505,-64.87,45.34,110.21000000000001,1.12,0.0,359.375,359.375,0.4098068121247973,0.032258047015004204,0.22008274564480418,65.27259794135811,0.35566789632796214,65.92419889539804,0.03125,28,0.43412400833333326,0.0014776204152613887,5.058877240363672e-08,36.504666666666665,0.017650936393164444,-1.6805560114354175e-05,119.06966666666668,0.2814543578549737,1.0400000000000063,-0.00046329873678893657
S052,13807.0,13836.984375,N2,0.17526041666666636,65.49793997742486,-527.61,339.56,867.1700000000001,2.915,0.0,359.375,359.375,0.38693955887479664,0.11557806855349138,0.23537057070831002,65.30210277993102,0.3490427662294403,65.92419889539804,0.04479166666666667,39,0.43363302499999995,0.0011777190133368076,-2.7286921464551506e-07,36.48033333333334,0.012775845264491891,-1.482639291080654e-05,120.67233333333334,0.8511822497104967,2.7700000000000102,0.0014036462140967372
S052,13837.0,13866.984375,N2,-0.2912291666666667,18.321218614218395,-62.47,91.66,154.13,0.765,0.0,359.375,359.375,0.2943625410196677,0.045595976308831845,0.15612494995995993,65.36028452807624,0.2619600648630041,65.92419889539804,0.021875,20,0.4328859166666667,0.0012147466236718818,6.326156229968667e-07,36.45066666666666,0.013148721948876965,-1.4513892826034514e-05,119.93366666666667,0.4993828413374089,1.5700000000000074,4.190973359096412e-05
S052,13867.0,13896.984375,N2,-0.021093749999999793,18.219411807635584,-66.29,54.15,120.44,1.06,5.213258322105382,359.375,357.3811848958333,0.21137108216357317,0.0,0.13188915142607024,65.39810513265094,0.18910770846338792,65.92419889539804,0.015625,15,0.43286460833333334,0.0013526609534286747,7.123461133751351e-08,36.419333333333334,0.013399834161495578,-1.3194448023668962e-05,120.26733333333335,0.35903512672470134,1.0100000000000051,-0.00034027787008405856
S052,13897.0,13926.984375,N2,0.0712291666666669,64.73639581224755,-273.32,553.26,826.5799999999999,0.025,0.0,343.75,343.75,0.11110243021644486,0.07880950133074056,0.10699797992641419,65.41831532299078,0.10829882308809474,65.92419889539804,0.009375,9,0.4330781,0.0017177522250507176,-1.4034786793290766e-06,36.38599999999999,0.016653327995728936,-1.944444971908815e-05,116.90266666666666,4.7751076311313545,13.77000000000001,-0.008144307764840434
S052,13927.0,13956.984375,N2,-0.08997395833333327,27.449562541090494,-111.47,237.54,349.01,0.195,242.01521895152754,937.5,812.5651041666666,0.07198059875565237,0.03225804701500421,0.0,65.42508710392208,0.061731495522357675,65.60487786742691,0.0010416666666666667,1,0.4319682166666666,0.0014002851387207645,6.775874233906858e-07,36.34600000000001,0.014966629547094308,-9.097224690002718e-06,108.59233333333333,0.24822950849745568,0.7999999999999972,0.00037350704576471393
S052,13957.0,13986.984375,N2,0.09895833333333345,15.874562548380052,-60.73,58.44,119.16999999999999,1.245,0.0,937.5,937.5,0.10642856726723121,0.0,0.032258047015004204,65.41906457201507,0.09214403138817448,65.42935121182236,0.0,0,0.4319148583333333,0.0013376424864653582,-5.143332558412701e-07,36.327,0.016960738977610655,-2.2743061725005412e-05,113.86733333333333,4.748341418034535,12.950000000000003,0.008320766146041164
S052,13987.0,14016.984375,N2,-0.020567708333333278,15.921126227588003,-59.59,65.19,124.78,0.72,0.0,937.5,937.5,0.09090593428863095,0.045595976308831845,0.0,65.42260177528844,0.07806163392878714,65.60487786742691,0.0020833333333333333,2,0.43138126666666665,0.0012731692197906052,-3.287487870954812e-07,36.30466666666668,0.011469767022724248,-7.361113107941495e-06,121.91233333333334,0.21426904167943364,0.8800000000000097,-3.8368065963560646e-05
S052,14017.0,14046.984375,N2,0.051218750000000014,13.664354931797856,-47.18,50.38,97.56,0.515,0.0,937.5,937.5,0.09090593428863096,0.0,0.03225804701500421,65.42275156109298,0.0792875074483427,65.92419889539804,0.0010416666666666667,1,0.4308369083333333,0.0014898095851250807,1.6008055557740904e-07,36.28066666666667,0.013399834161493457,-1.1666669831451896e-05,120.87933333333334,0.32023879978679765,1.1200000000000045,0.0002551389580997615
S052,14047.0,14076.984375,N2,-0.13021874999999994,13.940337471034018,-44.84,36.2,81.04,0.765,0.0,937.5,937.5,0.09636964965693294,0.0,0.0,65.42134670512262,0.08228176067509464,65.42935121182236,0.0,0,0.4307302083333333,0.0013082836459514008,3.541721880892427e-07,36.25466666666667,0.016069294390926216,-1.9930560962067498e-05,122.075,0.2117821207436223,0.7000000000000028,-5.9340293874860696e-05
S052,14077.0,14106.984375,N2,-0.002729166666666701,14.25703065777195,-45.2,50.69,95.89,0.615,0.0,937.5,937.5,0.09636964965693294,0.0,0.04559597630883185,65.42237763779674,0.08541594803265729,65.92419889539804,0.0020833333333333333,2,0.4312959333333333,0.0012645930684962998,1.0922789421329366e-07,36.22933333333333,0.010934146311237432,-6.597224011834086e-06,121.86133333333333,0.3660758877002896,1.1500000000000057,-0.00042798622720980364
S052,14107.0,14136.984375,N2,-0.12015625,17.445746328993376,-105.11,41.22,146.32999999999998,0.56,0.0,937.5,937.5,0.232399078305449,0.0,0.16232629604869594,65.39393835623339,0.18403240967656842,65.92419889539804,0.011458333333333333,11,0.43153070833333323,0.0012930452067105875,-8.344186291288205e-10,36.224,0.013808210118137692,-9.652780396261998e-06,121.21866666666668,1.0706718555291448,4.799999999999997,-0.001031319724207825
S052,14137.0,14166.984375,N2,0.2525937500000001,13.92975004043962,-42.19,37.7,79.89,0.515,0.0,937.5,937.5,0.23437268517375393,0.0,0.1462753717308556,65.39037694873423,0.21325454847660885,65.92419889539804,0.020833333333333332,20,0.43149869999999996,0.0014640104712740302,-6.847354288019246e-08,36.184666666666665,0.018749814813901262,-2.2013894860541398e-05,114.12100000000001,0.809750373057443,3.5700000000000074,-0.0011627433709698817
S052,14167.0,14196.984375,N2,-0.3189479166666667,15.8731547102528,-76.44,64.03,140.47,0.20500000000000002,0.0,937.5,937.5,0.24393467007354425,0.0,0.1821904480893551,65.39212912320963,0.22516379255286262,65.92419889539804,0.03125,26,0.4309116499999999,0.0012998126316896596,-8.736699418592499e-07,36.16566666666666,0.01145522685162737,-6.840279633323267e-06,114.30666666666667,1.2198315002035691,4.989999999999995,0.0015679170919913987
S052,14197.0,14226.984375,W,0.015770833333333407,13.750056963123802,-54.62,34.12,88.74,0.8049999999999999,0.0,937.5,937.5,0.2617030727062426,0.0,0.23239907830544904,65.39459577618773,0.24784390721321872,65.92419889539804,0.051041666666666666,40,0.43071953333333324,0.001347358532668852,4.90106035727548e-07,36.151333333333326,0.010561986345168448,-1.0208336102520264e-05,122.19066666666667,0.9461569050051302,3.9200000000000017,0.0012493058944514678
