participant_id,window_start_time,window_end_time,sleep_stage,BVP_mean,BVP_std,BVP_min,BVP_max,BVP_range,BVP_median,SDNN,median_nni,IBI_mean,x_std,y_std,z_std,mag_mean,mag_std,mag_max,movement_density,burst_count,EDA_mean,EDA_std,EDA_trend,TEMP_mean,TEMP_std,TEMP_slope,HR_mean,HR_std,HR_range,HR_trend
S053,4894.0,4923.984375,W,0.601036458333333,120.30428543826345,-1342.26,597.31,1939.57,3.995,27.02285665693103,812.5,823.828125,6.835711524042728,2.7153874480551674,2.943681439399764,63.818340097871825,1.4718499082328087,76.47875521999558,0.09375,67,0.023247675000000002,0.00459342672950979,2.88130177986702e-06,33.06266666666667,0.013148721948879403,-5.069445819620427e-06,70.57566666666666,0.4022825154319069,1.3699999999999903,0.000717257139012896
S053,4924.0,4953.984375,W,0.055916666666666615,54.468399146826926,-350.14,434.71,784.8499999999999,3.9,28.867062648835287,812.5,821.8505859375,2.152596290513053,1.36506472106942,1.7685475443613798,64.06124933297752,0.9650564222297814,69.07966415668217,0.12395833333333334,86,0.015327633333333333,0.002660722705498556,3.497042615300189e-06,33.02133333333333,0.02028683207293644,-3.145834186695364e-05,72.36966666666667,0.5693357728284979,2.1400000000000006,0.0010090627737257974
S053,4954.0,4983.984375,W,-0.029583333333333222,43.503465617854964,-250.04,331.52,581.56,4.045,52.45470462072427,796.875,805.1025390625,2.9289947792146487,2.0732579283581676,1.9344933548426977,64.03253215455929,0.999183437611425,70.44146506142529,0.10625,71,0.01680054166666667,0.0017976507396035592,1.3353842598156094e-06,32.963,0.018823743871327,-2.524306240317323e-05,73.37866666666667,0.20718322540420356,0.7000000000000028,-0.00024333339934174084
S053,4984.0,5013.984375,W,-0.02154166666666691,25.37320452634558,-115.47,89.23,204.7,4.03,42.32719041279094,781.25,790.2099609375,1.7299997992935015,1.0673048017930753,1.5069500447924609,64.15683498226544,0.9871592534619779,68.01470429252781,0.15520833333333334,105,0.018273608333333337,0.0013908341399787953,3.5136532968894584e-07,32.91466666666666,0.012310790208413427,-1.2430558927561058e-05,73.52733333333335,0.36296862429447224,1.0600000000000023,0.0005901390489743503
S053,5014.0,5043.984375,W,-0.12917187500000007,25.20284161168721,-130.47,63.78,194.25,3.045,35.634035745518815,796.875,786.7513020833334,3.725192103314569,2.302924761384362,2.470236015489658,64.08128239348453,1.2423419308539825,71.93052203341777,0.13125,84,0.015060875,0.0024188054922574904,-1.8048283975771476e-06,32.886333333333326,0.014715826703095736,-1.1006947430270453e-05,74.08833333333332,0.11527021394194657,0.3299999999999983,-0.0001853819947325302
S053,5044.0,5073.984375,W,0.04923958333333329,24.011319289141525,-89.99,142.79,232.77999999999997,1.045,58.37567699910202,781.25,752.3274739583334,5.2214684370288875,1.6739217093068866,2.446354776541688,64.10343486296775,1.3504062731583895,71.56116265125938,0.13229166666666667,88,0.01591478333333333,0.002445070848269137,9.120831467239442e-07,32.87233333333333,0.013828312341794028,-1.61458377131732e-05,74.66033333333334,0.265185260190348,0.8299999999999983,0.0002879514670007243
S053,5074.0,5103.984375,W,0.1417343750000001,26.226778001418573,-173.99,108.93,282.92,1.9449999999999998,34.57702360847336,859.375,842.8304036458334,1.9837490810751917,0.965712082553019,1.3369336157998104,63.98840369063315,0.9030188949111698,67.72001181334805,0.12604166666666666,84,0.01420705833333333,0.002051833713599591,-1.985824974453389e-06,32.836666666666666,0.017384539747206235,-2.1944450397258086e-05,72.98299999999999,0.40422889555300306,1.5600000000000023,-0.0005644793197914817
S053,5104.0,5133.984375,W,-3.414380208333334,69.49020560130536,-535.24,473.75,1008.99,0.175,27.30324303100839,812.5,828.5481770833334,5.551011857210259,2.0476101309243147,2.928765827244188,63.97512077760401,1.6849717577196939,72.49827584156743,0.12083333333333333,82,0.012670066666666667,0.0032437293088186147,2.7181591574867513e-06,32.815000000000005,0.010567244989430591,2.812500762939347e-06,71.18566666666666,0.8429301407721881,2.3499999999999943,-0.0014802434570972908
S053,5134.0,5163.984375,W,3.1311822916666667,42.28500186862086,-337.53,418.32,755.8499999999999,5.109999999999999,31.46485115891526,812.5,812.4348958333334,2.515057950238037,1.5955871764024678,2.238976662016725,63.80974886824205,1.212483417845056,76.08547824650904,0.10833333333333334,70,0.0201951,0.0016180990204557938,1.4138818939566767e-06,32.81066666666666,0.01209223809814432,-4.097223333665478e-06,70.92599999999999,0.22679800116697138,0.8900000000000006,0.00010819447379407507
S053,5164.0,5193.984375,W,0.17554166666666662,36.2902804612557,-218.45,147.38,365.83,4.045,33.391297130477284,828.125,814.9820963541666,7.656655318069517,1.5266157196739314,2.707434947151188,63.90077744982221,1.3058425026113885,73.08898685848642,0.109375,74,0.02132660833333333,0.0016003107369915869,-1.7440579817865619e-06,32.809333333333335,0.01209223809814457,4.9305568930542746e-06,71.57433333333334,0.5640785012350289,1.769999999999996,0.0009980905485271684
S053,5194.0,5223.984375,W,-0.11523958333333335,22.634404133164917,-114.04,85.15,199.19,1.94,89.33391892540148,796.875,761.4908854166666,2.0801266988655605,1.6449334961016577,1.7319255100096604,64.09823770979798,0.9651670830652854,68.45436436049933,0.11770833333333333,87,0.018775408333333334,0.002612026510508119,-2.9513182919157692e-06,32.818,0.011944315244778328,5.347223672750066e-06,73.12933333333334,0.23967941551627372,0.9500000000000028,0.00040229177579529567
S053,5224.0,5253.984375,W,0.1339739583333333,18.6145787200894,-89.91,50.78,140.69,1.47,42.73438240778036,843.75,822.5667317708334,2.6256280250716526,1.505878239046349,1.8713111861888592,64.15171228012875,1.081327823054575,68.24954212300622,0.11770833333333333,78,0.018316325,0.00167504903491659,2.79696039414073e-07,32.822333333333326,0.01022524110011702,-6.284723927061372e-06,73.46633333333332,0.16385935703794546,0.5300000000000011,-0.0002662153499933126
S053,5254.0,5283.984375,W,0.6743906249999998,31.239138568194047,-220.46,169.35,389.81,1.1949999999999998,34.84319160899723,843.75,857.3160807291666,5.457786232123383,2.994895650368677,2.5898364049041143,64.30572334891417,1.6361752879547808,77.89094941005662,0.07395833333333333,39,0.0209103,0.0015171015160496016,-3.277401062663045e-07,32.817,0.011298967504450995,-5.798612684085058e-06,73.39433333333334,0.19462242647981046,0.5300000000000011,0.0003436459265532594
S053,5284.0,5313.984375,W,-0.5570104166666662,99.46738619821102,-707.79,459.81,1167.6,9.725,18.47258310116858,875.0,869.5638020833334,12.299512855924641,3.581782004308594,3.8203380267836105,62.465941136620444,1.3509063314196044,74.08778576796583,0.05625,26,0.019341149999999998,0.002992108400024972,2.7965094391572913e-06,32.81133333333333,0.011469767022722982,2.916667457863905e-06,72.05466666666666,0.7816594882399591,2.5900000000000034,-0.0013620837028221844
S053,5314.0,5343.984375,W,-0.04236458333333341,43.16551097872674,-128.1,97.67,225.76999999999998,7.470000000000001,20.131915810874506,812.5,815.3889973958334,3.220658145300257,0.7929533129997138,3.296897051005772,62.51164215760001,0.7670363486598339,67.86015030929418,0.09583333333333334,71,0.019319725000000003,0.00372911966144491,-5.181952143541703e-06,32.82266666666667,0.011527744310526186,9.722224859544395e-06,70.39566666666666,0.2497556583721153,0.7999999999999972,-0.0003925348287041083
S053,5344.0,5373.984375,W,0.5706822916666675,78.81997093061648,-366.79,526.79,893.5799999999999,3.46,21.856062124146188,828.125,831.5511067708334,18.935316814705367,3.0442723927141713,4.346070523249197,62.95442692330378,1.7024876186741373,81.85963596303125,0.09375,56,0.016448366666666665,0.0028256103792907395,6.985639915809441e-07,32.83833333333334,0.011571036638473274,9.40972477477447e-06,71.58999999999999,0.6972756508966415,2.5799999999999983,0.0012357642241113908
S053,5374.0,5403.984375,W,-0.9127499999999995,107.7686541138973,-724.19,658.44,1382.63,1.975,0.0,812.5,812.5,6.878680753962242,2.115049979298493,3.8859589657294804,63.93994036945072,1.5806988594983027,72.11795892841117,0.11770833333333333,71,0.019138241666666667,0.002054132128157913,7.769652715292076e-07,32.85400000000001,0.014966629547092786,8.33333559389363e-06,72.79266666666666,0.5956785113539766,2.1200000000000045,-0.0008331252259996821
S053,5404.0,5433.984375,W,0.5218697916666665,32.27037964433167,-120.16,95.69,215.85,6.195,38.297245031629025,828.125,809.1064453125,1.8647052450834332,1.2931443160847216,2.1917419188601763,63.933697809674776,0.982128325553197,70.83784299369935,0.13125,89,0.021273258333333333,0.0013865219946316116,1.2267592303491834e-06,32.86466666666667,0.016275407487643175,-1.4861115142444331e-05,67.31766666666667,1.7038753540744165,5.390000000000001,-0.0029710771948451586
S053,5434.0,5463.984375,W,-0.5751041666666661,166.2428232861672,-914.42,783.63,1698.05,2.225,42.260565886854245,828.125,845.01953125,25.474979874562706,44.954207989600064,18.517446259466293,65.47969204617324,8.351180826983938,110.86027241532469,0.10416666666666667,58,0.014249733333333332,0.008466658156885487,-6.407030817879452e-06,32.85933333333333,0.01824524291120367,-1.7291671357332023e-05,65.91666666666667,0.891827088372829,3.049999999999997,0.0013645837035003556
S053,5464.0,5493.984375,W,0.35176041666666674,45.36547389816511,-352.54,145.76,498.3,5.460000000000001,14.614759372077827,796.875,806.6487630208334,3.0934511640183793,1.4897202734257045,2.199774836567875,64.28885675545608,0.8576744194510981,69.4118145563131,0.11875,76,0.018070774999999997,0.0013914812339284352,2.0988612464358882e-07,32.81766666666667,0.011455226851625144,-6.076390537215536e-06,73.52066666666668,2.1650741839997596,6.700000000000003,0.0036163204254341438
S053,5494.0,5523.984375,W,-0.5214062500000001,148.89635501961297,-718.97,1162.08,1881.05,-0.58,9.601454119359026,812.5,812.4755859375,21.845891322281418,12.953762424002534,13.365034579287684,64.67817001829756,7.691712948634669,172.5195641079585,0.0625,32,0.015135566666666668,0.01077500445300243,1.4215884932694468e-06,32.75633333333333,0.11426528587263719,-6.086807206707706e-05,74.878,0.30088092882955075,0.8299999999999983,-0.0005146529173863164
S053,5524.0,5553.984375,W,1.1562916666666656,111.84861502364075,-608.37,515.68,1124.05,4.640000000000001,9.384814176368806,828.125,824.0071614583334,5.418308945750253,4.891997499992263,2.2711675499466253,64.64938599224473,1.941760153164412,95.79144011862438,0.027083333333333334,10,0.040037875,0.006418132770469539,5.304303305203805e-06,32.837666666666664,0.01174260996920583,1.1284725283401719e-05,72.78866666666666,0.5339521410097434,2.4000000000000057,-0.0008145141098399822
S053,5554.0,5583.984375,W,-2.375260416666665,113.6409818822477,-606.13,420.7,1026.83,-2.255,34.730150695114055,828.125,835.0504557291666,22.4717843917656,12.328489863985325,6.498934124013251,64.18149646274001,2.2081976368277485,85.33463540673272,0.04479166666666667,20,0.03413520833333334,0.017497419480167083,-2.06340631060284e-05,32.907,0.03551056180912999,5.940973833814597e-05,69.89433333333334,0.9248880412725041,3.269999999999996,-0.001655312949032376
S053,5584.0,5613.984375,W,3.503869791666667,153.37735180271662,-475.59,669.41,1145.0,0.635,0.0,890.625,890.625,18.00237144390057,10.115007876002728,6.880978382342433,64.51059709560904,1.3352386932673146,75.05997601918082,0.029166666666666667,16,0.04077428333333333,0.010222047051335767,-5.488813988936088e-06,32.98666666666667,0.026997942308421747,4.201390028588826e-05,68.04766666666666,0.37007821996017054,1.2900000000000063,-0.0006133682219423337
S053,5614.0,5643.984375,W,-1.8822968749999995,24.943328220049448,-185.98,110.45,296.43,2.105,39.613140327679346,875.0,871.9889322916666,1.1306565931339287,1.0910338297726305,1.8370747807315846,62.72038334468146,0.541383809822348,66.1362230551458,0.140625,106,0.018529816666666667,0.0016614189868068264,5.987566728398091e-07,33.104000000000006,0.02138535324312796,3.1597230793520657e-05,67.297,0.23466500946384675,0.9000000000000057,-0.0002253820055832258
S053,5644.0,5673.984375,W,0.1558645833333333,20.15243906822023,-73.46,79.91,153.37,2.48,45.1635932158197,859.375,876.7740885416666,1.6049186549133538,0.7630227886778131,1.4953399836380579,62.856549378679134,0.7078666581151627,66.06814663663572,0.13125,97,0.017142283333333334,0.0036008194025419025,-1.3059526112067629e-06,33.12533333333333,0.011175369742827282,1.0208336102522337e-05,66.59933333333333,0.2790571426946254,0.9299999999999926,-0.00047250012817386247
S053,5674.0,5703.984375,W,-0.20409374999999988,73.36661069382681,-412.78,231.74,644.52,5.735,31.707983961615962,859.375,870.2392578125,24.259567999862046,9.587091145037888,11.383375274446895,63.27821649675017,3.261617746417818,87.38993077008358,0.09166666666666666,48,0.015711991666666664,0.007030714622871838,5.912507463245297e-06,33.11466666666667,0.015216949614018302,-4.861112429775972e-07,68.02466666666668,0.5643387477590234,2.0500000000000114,0.0005960418283533607
S053,5704.0,5733.984375,W,0.3103749999999999,89.20163757409973,-408.66,560.57,969.23,4.975,43.005477929684155,890.625,877.8564453125,15.715559753294663,6.5753306284371655,7.785249069978252,62.630452628173025,1.7760992624778165,89.21883209278185,0.06979166666666667,31,0.023461208333333334,0.0029393680978963077,2.0348811943579671e-07,33.122,0.014236104336041977,-3.4722231641236276e-06,67.28833333333333,0.17255111963962688,0.6000000000000085,-0.00020809033422589403
S053,5734.0,5763.984375,W,0.0038020833333339017,142.70733648808434,-475.94,626.9,1102.84,-0.060000000000000005,27.441227657028076,812.5,823.4212239583334,34.68027552394396,13.819058900261222,10.748148863551135,63.74566161056066,1.9645294174161936,78.4219357067906,0.03333333333333333,17,0.030762225,0.010557111007485666,-1.3547465697554712e-05,33.095333333333336,0.023626726862226527,-1.2916670170537791e-05,66.16766666666668,0.6388567045033563,1.7999999999999972,-0.001092812796444444
S053,5764.0,5793.984375,W,-0.3203697916666666,29.42592691153224,-74.3,49.55,123.85,3.85,35.04673513164512,875.0,873.3479817708334,1.4874296055938991,1.226699501372144,2.0791583166164993,62.592633710427826,0.6667059763344884,65.34523701081817,0.1375,101,0.023194358333333335,0.001684493815145633,-1.5644724295986408e-06,33.11533333333334,0.01359738536958112,5.277779209467596e-06,66.286,0.3558051901438957,1.0,0.0006133334997106942
S053,5794.0,5823.984375,W,0.18722916666666686,37.573840592968615,-278.79,113.36,392.15000000000003,3.785,42.52614728513871,890.625,866.5120442708334,2.1902472827793265,0.8082091560546412,1.3356063795301618,62.8942030000537,0.8638936979570261,67.68308503607086,0.09791666666666667,62,0.027367850000000003,0.0029853620931974073,4.2596044541027715e-06,33.11266666666668,0.013399834161494614,-7.222224181375344e-06,67.21633333333334,0.5814377773148981,1.6500000000000057,0.0010352433363832838
S053,5824.0,5853.984375,W,-0.4645781250000001,55.019350644503746,-560.72,240.35,801.07,5.46,46.417632214487284,875.0,887.8499348958334,2.2977343913806343,1.3182414106174434,2.477502067215193,62.89540337316001,0.8425563447976434,66.01514977639603,0.11458333333333333,77,0.02885155,0.0023847940471873044,-1.6793685111134202e-06,33.097333333333346,0.012092238098143367,-9.375002543131617e-06,67.82666666666665,0.3780417378485544,1.2399999999999949,-0.0006518057323691758
S053,5854.0,5883.984375,W,1.6516614583333333,125.81592628137997,-816.19,515.53,1331.72,3.4850000000000003,19.704094609062725,875.0,877.6123046875,31.411685872165425,17.54712773143411,9.055835133028717,64.02217193818359,3.600063700962911,96.30160954002794,0.09895833333333333,52,0.0243685,0.006083457424305141,-4.547780313525474e-06,33.08333333333334,0.014907119849999659,-6.2500016954215795e-06,65.98266666666667,0.6369193215959329,2.069999999999993,0.00022784728402975356
S053,5884.0,5913.984375,W,-0.7834010416666667,65.3607912016511,-377.26,318.77,696.03,2.76,0.0,875.0,875.0,19.36354497283311,2.1492640455514067,4.535093556665434,64.27129942373081,1.660844278815291,79.42921376924235,0.07604166666666666,51,0.014185633333333333,0.00465689963912568,-2.447378268060512e-06,33.077333333333335,0.014126413400280268,-3.958334407100879e-06,72.74333333333334,3.067110837398754,9.679999999999993,0.005522223720221276
S053,5914.0,5943.984375,W,-0.3446249999999998,92.07186194854471,-495.1,315.69,810.79,6.79,8.215609138479584,875.0,874.1129557291666,25.46322356111386,5.59796590041617,5.424461938882868,63.66455578823094,1.6981493712950293,75.31932023060219,0.08541666666666667,56,0.015861525,0.004863874328424649,6.13688426022251e-06,33.05466666666667,0.012310790208413426,4.861112429769311e-07,78.71533333333333,0.7223052601835934,2.260000000000005,-0.000192013940976004
S053,5944.0,5973.984375,W,-0.01797395833333321,49.34309083061247,-177.23,91.33,268.56,10.405000000000001,40.550228332219525,906.25,911.1979166666666,0.5416656650631766,0.42621863683899236,0.5645016469196525,63.0693383825909,0.5206303700757643,64.72248450113763,0.06145833333333333,51,0.02612946666666667,0.0017917599817559885,2.453972453877076e-06,33.058,0.012220201853216397,1.0694447345500132e-05,71.71933333333332,3.0474830416080887,9.670000000000002,-0.0054814598202744735
S053,5974.0,6003.984375,W,-0.9290625000000001,69.89834403182901,-571.24,300.27,871.51,7.355,29.47859292881747,906.25,898.4130859375,3.425798264638477,1.474478706728999,3.9710375898410426,62.97501707374404,0.8083777345064195,70.09279563550022,0.11770833333333333,89,0.0258841,0.0039475391013474035,-3.5948842217025333e-06,33.06666666666667,0.011642832797717141,4.79166796649054e-06,66.34766666666668,0.3863132005107895,1.4500000000000028,-0.0006521182324539485
S053,6004.0,6033.984375,W,0.4893125,48.7188982993921,-181.96,136.75,318.71000000000004,9.045,36.55263784050838,906.25,902.783203125,0.8782670901253344,0.4807717681556973,0.7320589957536816,62.879898836108666,0.5678811736677405,65.03076195155643,0.134375,96,0.026513783333333332,0.00267969895443292,3.6103586182613433e-06,33.06933333333333,0.010934146311239526,6.319446158704914e-06,65.48666666666665,0.2965280575070247,0.75,-0.0005086112490807438
S053,6034.0,6063.984375,W,0.516578125,48.11632013725892,-213.2,143.66,356.86,9.27,46.183364307903,875.0,876.2939453125,0.8966753552475574,0.5206155794799289,0.8854283087469902,62.90963272131832,0.6661350229767219,65.58200972827838,0.13541666666666666,98,0.025745191666666667,0.0017374664711193384,-1.131398961425499e-06,33.07866666666667,0.011175369742828553,6.597224011834801e-06,65.94566666666667,0.3430615429077157,1.1799999999999926,0.0006006598851616446
S053,6064.0,6093.984375,W,-0.5924374999999998,45.89700625104641,-113.78,118.17,231.95,7.835,77.96242604402612,906.25,872.5667317708334,2.0186242220879054,0.7650394586319642,0.9677027269302972,62.92894153821738,0.5758907995030861,66.64082832618455,0.203125,137,0.025681166666666665,0.001817785137345873,-2.345530150154664e-07,33.07000000000001,0.012649110640675495,1.6666671187793184e-06,66.26899999999999,0.18614241859393638,0.6300000000000097,0.0002465625668843774
S053,6094.0,6123.984375,W,0.6504062499999997,46.30020700144469,-104.41,74.88,179.29,9.99,32.54837930586513,890.625,873.7874348958334,0.5113299652214148,0.3872296884243539,0.47373621168735763,62.971622196723295,0.4399408064120211,64.66065264130884,0.1625,118,0.02723960833333333,0.0016180774718568193,9.212856231786085e-07,33.06666666666667,0.014681810363699121,-4.097223333665824e-06,67.01433333333334,0.18342452277586965,0.5999999999999943,0.00015565976444763515
S053,6124.0,6153.984375,W,0.10859374999999995,46.94790681127286,-107.97,75.05,183.01999999999998,8.455,24.024209386594453,890.625,878.5481770833334,1.0715986038197014,0.38640077064565426,0.7393859771891058,62.97476104829411,0.4567686251536126,64.62197768561404,0.12291666666666666,93,0.029620125,0.001308068694440396,1.1622965392514488e-06,33.066,0.010832051206182974,2.7777785312988635e-07,67.71666666666667,0.32800745248986174,1.1200000000000045,0.0005834029360359533
S053,6154.0,6183.984375,W,-2.3360260416666665,148.60088857647546,-727.16,737.43,1464.59,2.84,22.72111515476903,859.375,875.0813802083334,26.598400902226352,6.235846387214053,4.849467391825106,63.972520915899054,3.2290841319986177,101.1236866416568,0.04791666666666667,24,0.03524526666666668,0.008819976677721747,3.6562835439137217e-06,33.05366666666667,0.07073345900083122,-4.1701400201117545e-05,67.77066666666666,0.27172208023804106,0.769999999999996,-0.00011416669763636601
S053,6184.0,6213.984375,W,2.0783020833333326,97.06728838817816,-504.02,837.56,1341.58,3.6799999999999997,29.07161551461129,906.25,887.5081380208334,21.211856058737464,7.807959513908441,3.992786464362952,63.72596734837976,2.109512703580964,83.19254774317228,0.042708333333333334,24,0.03733723333333334,0.0027205136057165537,-1.3666392596135142e-06,32.57366666666667,0.04347285232060249,7.322918653135533e-05,68.44266666666665,0.28777228651989667,0.9200000000000017,0.0001462500396728643
S053,6214.0,6243.984375,W,-0.12644791666666652,40.43417834615336,-113.89,109.75,223.64,4.890000000000001,44.652619520625116,890.625,886.03515625,1.7943584430715682,2.6548482821136252,1.8654746473008474,63.02791982445588,1.4372534925899818,81.04936767180853,0.034375,23,0.03789225833333333,0.0015298928202972985,7.100238471201843e-07,32.65566666666666,0.018740923729159798,2.836806325088317e-05,67.21966666666667,0.4510615873199082,1.6299999999999955,-0.0007978127164205496
S053,6244.0,6273.984375,W,0.2825833333333333,57.29522988064878,-318.34,288.03,606.3699999999999,0.6799999999999999,61.977779682785986,937.5,910.888671875,26.306738944401467,5.924413941948651,7.236463581400141,64.03343957009167,2.9074029344790877,86.35392289873113,0.075,39,0.039215975,0.0021825407039446016,2.254488241777409e-06,32.71666666666667,0.0192064803878498,2.6597229437180405e-05,66.901,1.634054976635323,5.450000000000003,0.0023382298009520944
S053,6274.0,6303.984375,W,-0.40177083333333397,74.65283089972755,-292.4,433.9,726.3,-0.92,73.40945481634458,734.375,725.1546223958334,21.243429948391626,24.50289096375359,10.84744828665236,64.83570241371126,6.055337248026877,135.90437814875574,0.05520833333333333,27,0.0415109,0.002494094863873466,3.12510761857303e-06,32.75533333333333,0.013597385369582885,1.5138892995578807e-05,72.845,1.1092181931432605,3.9499999999999886,0.0019747574801316945
S053,6304.0,6333.984375,W,0.22071875000000005,32.555224372787926,-178.06,123.29,301.35,5.38,44.5474628582303,812.5,815.6982421875,1.4781653741256047,0.92949125496454,0.8960216614057572,64.21175408650159,0.6230065285742068,67.63135367564367,0.07083333333333333,40,0.047413366666666665,0.0017578088440505192,2.4896829670363943e-06,32.778,0.014236104336040912,5.138890282902157e-06,75.41666666666667,1.104398277595342,3.530000000000001,-0.0011304864177751792
S053,6334.0,6363.984375,W,0.0531874999999998,32.64663824331448,-73.24,53.38,126.62,6.195,69.74233335581327,937.5,922.3795572916666,0.5133588670597683,0.16266017746619277,0.4422166387140533,63.999214900309475,0.3267141625405903,65.03076195155643,0.275,178,0.05216346666666668,0.001450483568408212,1.845196247069293e-06,32.78866666666667,0.017074997966487086,2.194445039725683e-05,71.70566666666667,1.0936199319487336,3.509999999999991,-0.0019414935822193937
S053,6364.0,6393.984375,W,-0.06680208333333344,30.154695743753226,-67.13,47.82,114.94999999999999,5.130000000000001,31.82484772312718,890.625,885.8561197916666,0.5733435909329492,0.20883013681379098,0.4128457620757284,63.96858008087268,0.3177589814816793,65.39113089708727,0.20625,141,0.05522657499999999,0.0015789639465089132,2.2198146212604778e-06,32.803333333333335,0.01299572579307907,1.1111114125196688e-06,67.41733333333333,0.9009437027670235,3.030000000000001,-0.0015536115325552103
S053,6394.0,6423.984375,W,0.07655208333333352,29.408986978320716,-60.33,49.5,109.83,4.835,27.94534737721038,890.625,889.013671875,0.5036229419996009,0.21794494717703367,0.3121091305537215,63.91049301973919,0.2756180458559015,65.03076195155643,0.140625,106,0.057735075,0.0012827335145598245,9.237769432988665e-07,32.80533333333334,0.015216949614017681,-9.09722469000215e-06,66.45633333333333,0.4376412787762243,1.3199999999999932,0.0006616321239236445
S053,6424.0,6453.984375,W,-0.41323958333333316,58.490878916119044,-448.89,280.29,729.1800000000001,4.325,36.652109984613325,906.25,899.3977864583334,10.15231649255137,13.097868120635342,5.444100300471807,64.21025200799353,2.7763501946432543,115.87061750072795,0.029166666666666667,11,0.05791661666666666,0.0031858973675228286,-1.6629205899849685e-06,32.80200000000001,0.013266499161422172,-5.138890282902428e-06,67.40033333333334,0.05630176630345699,0.20000000000000284,-3.725695455104084e-05
S053,6454.0,6483.984375,W,1.4613333333333334,101.93098700526771,-513.38,545.33,1058.71,6.1,98.05134885053512,718.75,709.1227213541666,23.6087217719765,20.914306702025502,15.2013288664365,65.0737932701522,7.758219583136494,146.00684915441468,0.06770833333333333,39,0.05311325,0.00865878938444438,-7.196652559855837e-06,32.80200000000001,0.015143755588800845,-4.305556723512819e-06,68.493,0.5362657923082533,2.0999999999999943,0.0009495488686927246
S053,6484.0,6513.984375,W,-1.0751145833333333,100.84740941344769,-655.23,547.37,1202.6,7.04,86.2817132238824,859.375,840.9016927083334,7.603473427304276,1.6895277811459297,3.0594734194247657,64.26928132591756,1.4867815968497629,92.36882591004391,0.023958333333333335,10,0.0566249,0.0015415378976852963,1.396873208787221e-06,32.81133333333334,0.016275407487644163,8.750002373589917e-06,71.90833333333333,1.1173930473303577,3.1700000000000017,0.0016937157372275762
S053,6514.0,6543.984375,W,0.03892708333333332,39.80980502122582,-85.19,66.98,152.17000000000002,6.385,29.150563290480623,937.5,931.3313802083334,0.40670914224896504,0.49964831381682845,0.3580894882528978,64.25523148737123,0.39478032415088227,64.73020933072904,0.3125,188,0.059656566666666654,0.0013999463128594924,1.229562833540265e-06,32.806000000000004,0.016653327995728762,-1.402778158305645e-05,70.35499999999999,1.0592694023083402,3.700000000000003,-0.0018990630151538128
S053,6544.0,6573.984375,W,0.13145833333333337,39.80202953706126,-93.3,160.14,253.44,7.205,31.61444084223352,906.25,899.9430338541666,0.835621857594025,0.6730287251897614,0.536909195651369,64.05929957873077,0.4585893032874476,67.07458535093602,0.10729166666666666,71,0.06294405833333333,0.0019373626200577987,2.691171085929655e-06,32.788000000000004,0.014922019523732023,-1.3402781413513463e-05,66.56333333333333,0.8949239570426584,2.6899999999999977,-0.0013038197981282023
S053,6574.0,6603.984375,W,-0.13043750000000012,40.42161102080083,-87.89,64.16,152.05,6.165,37.18920948647792,906.25,908.9029947916666,0.46599188565896726,0.39763706363340934,0.21578094200034337,64.05981140686286,0.30778106476414185,64.73020933072904,0.27291666666666664,168,0.0665196,0.0010810776521601054,2.4296751382582366e-07,32.778000000000006,0.012220201853214228,-9.72222485954356e-07,66.17433333333334,0.17024851116986536,0.5600000000000023,0.0002805903538927839
S053,6604.0,6633.984375,W,-0.45393750000000016,41.031762712159065,-88.01,60.88,148.89000000000001,6.1850000000000005,22.78322469382626,890.625,896.9319661458334,0.49956578367840826,0.4465142774872938,0.19741988090108856,64.06089143900198,0.3245197072639283,65.07687761409578,0.3489583333333333,181,0.06847312499999998,0.0014501900080248116,1.7105024171284775e-06,32.776666666666664,0.012995725793077489,8.333335593894494e-06,66.551,0.23969911695011809,0.6500000000000057,-0.00035913204186524685
S053,6634.0,6663.984375,W,0.5345208333333334,41.46880166888998,-91.01,64.64,155.65,7.425,46.26588737553392,906.25,918.603515625,0.5005162265656883,0.45210613421764395,0.17399263633843817,64.06840174821284,0.31836419856940357,65.07687761409578,0.365625,173,0.07099225833333332,0.0013600851658127475,1.353873848164563e-06,32.784666666666666,0.016275407487644552,1.0694447345497937e-05,66.61,0.14852609198386682,0.5,0.00017006949057874713
S053,6664.0,6693.984375,W,-0.22994270833333327,44.069224220334696,-143.7,130.15,273.85,7.16,54.14111622949441,921.875,909.2041015625,1.441223664474625,1.0829807118421926,1.0101567535123777,64.04802932462508,0.7738849819569155,71.8679344353238,0.0375,19,0.072977275,0.001407400280437302,8.962990712616822e-07,32.794000000000004,0.010832051206181924,4.166667796948296e-06,65.64433333333334,0.35228476486438504,1.2700000000000102,-0.000604062663862483
S053,6694.0,6723.984375,W,-0.25320312499999986,45.266405207582736,-100.1,187.6,287.7,4.805,35.20314421025107,968.75,974.0397135416666,0.35891274618631197,0.42555111326373,0.318518434404597,63.97815889193268,0.3328810577615745,65.03076195155643,0.16145833333333334,129,0.07351089166666668,0.0012183262890528208,1.1331120695290973e-06,32.843,0.026350205565294608,4.329862285661264e-05,64.31266666666667,0.615488604461709,1.8000000000000043,-0.0010978475200324215
S053,6724.0,6753.984375,W,0.2833385416666668,40.34556267874519,-156.42,80.58,237.0,6.805,43.011758261251835,937.5,932.470703125,0.553350550372205,0.5619750637014264,0.3828900856751626,63.99004624884865,0.40443096264460787,66.03786792439622,0.06875,54,0.07528278333333334,0.001492610862344533,1.7499518635937137e-06,32.868,0.015999999999998772,-1.2013892147864699e-05,63.07866666666667,0.16570522690072936,0.509999999999998,-0.00028493063284793635
S053,6754.0,6783.984375,W,0.20050000000000007,36.16725665167782,-74.09,57.69,131.78,6.25,64.1082600239306,953.125,934.86328125,0.5119237953272169,0.1715147740235031,0.06451609403000842,64.15620271750835,0.22217381328544628,65.01538279515087,0.007291666666666667,7,0.07924318333333334,0.0017651763320007305,2.4735566605785204e-06,32.840333333333334,0.012512216252748634,-5.659723757519893e-06,62.898999999999994,0.15685130963219027,0.4799999999999969,0.00027697924180209414
S053,6784.0,6813.984375,W,-0.5510833333333334,36.38976849068369,-76.92,70.92,147.84,3.975,24.752595390787835,984.375,981.2337239583334,0.5055411275032153,0.19895287950640195,0.07902948640996107,64.15167037912819,0.22971917861300567,65.01538279515087,0.008333333333333333,8,0.08177289166666668,0.0013122381884642302,9.307587160261259e-07,32.82933333333333,0.009637888196534153,-3.7500010172526766e-06,62.785999999999994,0.32453659269795754,0.9299999999999997,-0.0005773612677303784
S053,6814.0,6843.984375,W,1.2014322916666658,121.70121730543876,-679.69,751.17,1430.8600000000001,9.379999999999999,41.83878634350527,953.125,942.2526041666666,22.261484410322723,13.186687705367444,10.814084662297283,65.25244429618549,7.2363933263201705,142.30249470757707,0.08854166666666667,50,0.08088677500000001,0.00473413370896672,-3.887620629237364e-06,32.82233333333333,0.01382831234179428,-1.0173613870881632e-05,62.02933333333333,0.4806171957898395,1.8599999999999994,0.0003970139965858277
S053,6844.0,6873.984375,W,-0.967119791666667,58.80945287878741,-407.47,240.39,647.86,2.8049999999999997,87.24988278754861,890.625,834.2447916666666,4.917810160105139,1.9084061121493217,3.3814694937999956,64.38242287902457,1.3131860339597268,74.43789357578571,0.06458333333333334,32,0.0768521,0.003323706345833418,2.2687627682190654e-06,32.86033333333334,0.0256233400546354,3.9548621839359784e-05,67.08566666666665,1.8864246311180564,6.420000000000002,0.003399827311151074
S053,6874.0,6903.984375,W,0.2685572916666666,31.06929063688145,-65.19,56.19,121.38,4.9,92.11871172364562,921.875,897.6806640625,0.20497289793748072,0.18521758975744057,0.4807480697800275,64.55678485920039,0.3189623429992535,65.49045732013177,0.33229166666666665,112,0.07862404166666666,0.0014528719110542933,1.6640588281409569e-06,32.892666666666656,0.013399834161493858,1.527778192214054e-06,72.65733333333334,0.9581612019325797,3.319999999999993,0.0011390280867589185
S053,6904.0,6933.984375,W,-0.14000520833333335,31.022931715741443,-68.6,55.91,124.50999999999999,5.210000000000001,43.60940458450945,953.125,937.8173828125,0.35061794407635977,0.3095625834230544,0.47920176501889294,64.45591582486495,0.30536619206883076,65.42935121182236,0.25833333333333336,148,0.08053487499999999,0.0010135630021735193,2.87724687425316e-07,32.902666666666654,0.014126413400277264,2.152778361756496e-06,68.81199999999998,1.4899046949385732,5.219999999999999,-0.0026731257251317634
S053,6934.0,6963.984375,W,0.021244791666666884,32.843281085496166,-80.21,77.21,157.42,4.845000000000001,36.99136810308287,968.75,966.259765625,0.6617912548006022,0.6004880827293745,0.5436172810570769,64.58585050524663,0.4296291198253992,67.86015030929418,0.01875,10,0.08206110833333334,0.0012231150245434347,1.0833494692245722e-06,32.90733333333332,0.00997775303139627,1.2500003390838967e-06,63.897666666666666,1.076267263379418,3.460000000000001,-0.0018351046644706664
S053,6964.0,6993.984375,W,-0.36784895833333336,30.58102899654626,-65.27,54.57,119.84,3.88,53.95293249253086,968.75,956.2662760416666,0.49914858064063,0.2045383521494196,0.4155075021885887,64.52526425852439,0.37033412966879725,65.42935121182236,0.40208333333333335,174,0.08381126666666666,0.0011776721935902047,9.544221339035765e-07,32.924,0.010519822558707977,6.250001695422447e-07,62.81833333333332,0.28169822308436476,0.9600000000000009,-0.00031649314140981343
S053,6994.0,7023.984375,W,0.09235416666666664,30.162372656168248,-66.46,56.01,122.47,5.345000000000001,22.89116914845211,968.75,962.3209635416666,0.24578919095210208,0.06441510347391795,0.49817265908908415,64.53962264573848,0.3363783767563102,64.91532946846992,0.42083333333333334,167,0.08519885833333334,0.0012262563781406226,9.046085353213265e-07,32.92933333333333,0.014126413400278927,2.7083340680156027e-06,62.147666666666666,0.12387314299538671,0.37000000000000455,0.00016503476699076774
S053,7024.0,7053.984375,W,0.23970312499999993,29.799469017315538,-65.07,57.72,122.78999999999999,4.9350000000000005,36.68535937321526,984.375,995.6461588541666,0.12011279421166313,0.04564354645876384,0.3630921887069453,64.39384107700124,0.2369557270385193,65.50572494064927,0.16875,116,0.0865866,0.0010768530261832368,-2.4685944196490956e-07,32.94733333333333,0.01526069752301307,1.4166670509622183e-05,61.73466666666666,0.40097159777498215,1.1499999999999986,-0.00069791685598873
S053,7054.0,7083.984375,W,0.6068541666666668,33.34141527439359,-181.75,100.81,282.56,5.41,23.234749252906926,984.375,987.451171875,1.7600378660502038,0.5540951943258486,0.9789001188621511,64.44250445541016,0.5899105986865435,69.0724257573165,0.040625,19,0.0874513,0.002155913265880612,-1.4024213873755927e-06,32.952666666666666,0.011234866364234342,4.027778870382736e-06,61.181000000000004,0.0988719710871926,0.5,-6.7708351700395005e-06
S053,7084.0,7113.984375,W,-0.43752604166666675,34.31063436297771,-210.68,95.36,306.04,4.795,45.670403978466275,953.125,971.0530598958334,0.4258862797319126,0.14337208778404378,0.19585272510372573,64.39765815953324,0.23707994693583856,65.19202405202648,0.0125,9,0.08436625833333332,0.0011684793286991552,5.526071377515035e-07,32.97500000000001,0.013844373104863698,8.92361353179707e-06,62.52333333333333,0.5299517797770743,1.7299999999999969,0.000935000253635051
S053,7114.0,7143.984375,W,-0.19320833333333354,28.754931396239336,-61.69,47.5,109.19,4.14,23.56621893853574,968.75,973.486328125,0.7034690516271644,0.5160099573086422,0.6038711561781113,64.44272361644728,0.42445796123469715,67.2532527094415,0.08020833333333334,63,0.08535899999999999,0.0019761589131443865,2.0552119290396943e-06,32.99466666666667,0.010241527663824732,9.236113616566304e-06,63.482,0.16017490440140655,0.6999999999999957,-5.666668203848708e-05
S053,7144.0,7173.984375,W,-0.1576354166666666,33.76281063402077,-200.66,109.65,310.31,3.5300000000000002,26.379812224446628,968.75,973.3479817708334,0.15115297622680882,0.13257842935619488,0.2576604138956718,64.38878127949063,0.1894386670817106,65.3834841531101,0.09166666666666666,64,0.09124080833333333,0.0013096868792185487,3.3683885005394165e-07,33.01866666666666,0.015648926125740946,1.4444448362752168e-05,62.129999999999995,0.31900888179902825,1.1499999999999986,-0.0005250695868786848
S053,7174.0,7203.984375,W,0.3781927083333336,96.18367520235236,-701.63,649.61,1351.24,4.865,45.105365710806424,953.125,932.9182942708334,19.562760664530664,7.028854144282496,7.54129250625717,64.99342423908982,6.766000592005904,129.5414991421668,0.04895833333333333,27,0.09231845000000001,0.003975971212274219,5.243615137699417e-06,33.037,0.02002498439449984,2.5312506866455086e-05,64.36633333333333,2.2291455513018636,6.0,0.003944271903285564
S053,7204.0,7233.984375,W,-0.09190104166666663,33.43751433925859,-78.17,64.02,142.19,5.085,29.737887091957006,968.75,969.7102864583334,0.2995928226359904,0.3388075878684275,0.4838527650679377,64.11746567524855,0.3439530733350136,64.82283548256741,0.11458333333333333,86,0.09642795,0.001183144495613282,1.0947437865515947e-06,33.08933333333334,0.015040685563571377,1.1736114294736735e-05,67.68033333333334,0.09354084075359163,0.269999999999996,-0.00011336808630861721
S053,7234.0,7263.984375,W,0.0389583333333331,31.582108787689123,-130.46,78.82,209.28,4.365,36.76797439656604,953.125,948.1282552083334,0.8797268160249142,0.5559797642575572,0.8771544656428661,64.1208634253297,0.6040476721370279,67.00746227100382,0.16770833333333332,100,0.09675895,0.002332155354495066,-2.791798500379372e-06,33.12,0.017701224063135224,1.65972267245079e-05,65.338,2.135850182011838,5.689999999999998,-0.0037652787991750212
S053,7264.0,7293.984375,W,-0.14135416666666684,38.387827621791764,-132.33,170.26,302.59000000000003,3.97,42.31707528447772,890.625,906.3557942708334,2.6577193648356143,1.1189342647755895,1.3312989036401004,64.21531784945839,0.799241406812307,71.56116265125938,0.06041666666666667,34,0.09795446666666667,0.0016616809257161535,1.8950764689335064e-06,33.14399999999999,0.011430952132986595,-7.63889096106793e-07,63.50933333333334,0.7764488965082565,2.450000000000003,0.0013969448233899808
S053,7294.0,7323.984375,N1,-0.2799583333333332,36.453707240289894,-76.69,62.15,138.84,5.305,27.626909927388926,968.75,962.3453776041666,0.4766407608782064,0.12801909579781012,0.05581428468591173,64.25018396273995,0.2400224032739213,64.69157595854347,0.34479166666666666,178,0.10024953333333333,0.0011424445933562327,5.341468462854943e-07,33.16099999999999,0.012206555615733855,8.92361353179633e-06,64.523,0.14807993336933456,0.45000000000000284,-0.00013885420433328136
S053,7324.0,7353.984375,W,0.2788645833333334,28.72876383200286,-62.67,49.55,112.22,4.46,31.119515006778855,953.125,953.6295572916666,0.4493617676926786,0.1356408400888169,0.10663227798529547,64.21803156368972,0.22968547686616028,64.69157595854347,0.27708333333333335,143,0.10252268333333332,0.0013267298455433762,7.562389204207141e-07,33.18666666666666,0.024267032964268968,3.201389757321576e-05,63.64366666666667,0.5008890983929364,1.7800000000000011,-0.0008885766299307256
S053,7354.0,7383.984375,N1,-0.07875,50.240830208108626,-181.33,273.66,454.99,4.345000000000001,30.02342986950157,984.375,964.7623697916666,8.000954532897934,1.1839635755646747,4.204709661003163,64.15971924335177,1.1990489068178114,81.6639455328972,0.059375,33,0.10173276666666667,0.004326691795766779,-1.676891513913713e-06,33.227000000000004,0.015307950004273102,8.159724435689018e-06,62.674,0.04431703961232063,0.1600000000000037,2.6250007120771425e-05
S053,7384.0,7413.984375,N1,-0.20094791666666686,44.39499459911692,-164.66,192.64,357.29999999999995,3.4450000000000003,29.128084322308883,1015.625,996.4599609375,3.8326992229150116,1.461157978758248,3.3076797672550367,64.2200619575931,0.9624710365695786,75.67033764957046,0.04583333333333333,30,0.10215972499999998,0.0031154789438182693,3.923825500169677e-06,33.272666666666666,0.02174600857373328,3.069445277084736e-05,62.83066666666666,0.13713578024068793,0.5,-8.54166898374264e-05
S053,7414.0,7443.984375,N2,0.37314062500000006,30.89929922649635,-78.7,123.61,202.31,1.85,53.46221610022561,953.125,947.7864583333334,0.5206655979902605,0.3167146345248704,0.33993463423951903,64.24551915604088,0.3190768519494505,65.03076195155643,0.2635416666666667,130,0.10400620833333334,0.0011763631022196708,3.135614999895545e-07,33.31766666666667,0.014533486237727036,1.024305833416208e-05,62.84066666666668,0.1084107415752191,0.3200000000000003,0.0001735417137428698
S053,7444.0,7473.984375,W,-0.7337499999999999,38.408330764084674,-155.51,149.64,305.15,0.36,74.24297762728246,968.75,950.3011067708334,0.6783353808322908,0.6080478782318233,0.47907607839349364,64.22636701943684,0.39108330476011116,66.43794096749237,0.034375,24,0.10499897500000001,0.0011393281021615349,3.238640201454063e-07,33.34466666666667,0.019275776393066487,1.666667118778921e-05,62.274333333333324,0.27245407360181334,0.8900000000000006,-0.00038572927130242884
S053,7474.0,7503.984375,W,0.5392760416666665,46.630714307413676,-305.48,212.5,517.98,1.53,52.70748253337955,984.375,970.8984375,5.871465304139021,2.533110598761048,3.953426234679933,64.3272115194044,2.0125812127231097,87.11486669908874,0.022916666666666665,9,0.103109825,0.009129247101726133,-7.303128066169723e-06,33.361000000000004,0.019209372712296894,1.663194895614811e-05,63.46966666666667,0.378765392059811,1.3000000000000043,0.0005339932004104813
S053,7504.0,7533.984375,W,0.3875104166666662,163.8360759406649,-575.37,689.43,1264.8,5.015,41.59323181573457,984.375,970.6949869791666,29.505656163856482,19.934951481796922,23.88283021321082,66.91845014040966,12.32330065927305,174.1436188896969,0.11145833333333334,62,0.10068700833333333,0.02105158531223394,1.8226037713226376e-05,33.39733333333333,0.026068286394690644,3.923612175459152e-05,75.01066666666665,7.8510822750044404,24.79999999999999,0.014139656613405117
S053,7534.0,7563.984375,W,-0.586625,24.10515553139428,-56.54,87.32,143.85999999999999,1.705,41.00999258615189,890.625,893.0338541666666,0.26807691876586465,0.5634935284430711,0.8822609203615573,64.79628621182384,0.3301537350103934,66.60330322138685,0.025,13,0.11644161666666666,0.0021370096676716806,3.2454718005294607e-06,33.556666666666665,0.057464965172026566,9.93750269572016e-05,93.56700000000001,1.2695751257802743,5.810000000000002,0.0017874657626588985
S053,7564.0,7593.984375,W,0.3455520833333333,23.92677573320047,-46.57,98.98,145.55,1.9249999999999998,31.33506218219146,906.25,916.5364583333334,0.10152910775842672,0.3799671038392666,0.7627817102552997,65.06259411218447,0.22475333102172954,65.27633568147036,0.0,0,0.12143683333333333,0.0020604857531390233,3.1020359977311188e-06,33.74133333333334,0.05840852297015908,0.00010375002814399704,84.64633333333335,7.342086208216906,23.450000000000003,-0.01321392719561827
S053,7594.0,7623.984375,W,-0.06335416666666668,22.29444767153321,-59.5,48.68,108.18,2.47,45.54759384701812,906.25,917.1468098958334,0.4962872134801469,0.30728990112487153,0.5526294468769788,64.97177387258529,0.39641079237275295,66.21933252457322,0.046875,28,0.1250126,0.0012529376241457522,9.846578191888626e-07,33.919,0.04770394812451816,8.253474461120556e-05,66.69866666666667,1.0939674990094024,4.950000000000003,-0.0012804864584652932
S053,7624.0,7653.984375,N1,-0.007651041666666636,23.589483145149902,-47.22,44.31,91.53,2.4699999999999998,35.7136921417017,937.5,928.8655598958334,0.139563897900647,0.12827311899051788,0.3562302016915779,64.71889603636289,0.13661076500514768,66.07571414672717,0.01875,15,0.12844993333333335,0.0017358935918489395,2.3834815493385244e-06,34.04366666666667,0.03449476610862747,5.9479182801428275e-05,65.607,0.09835818894903237,0.3100000000000023,-0.0001728819913416875
S053,7654.0,7683.984375,W,0.02092187500000007,22.680130978047647,-46.29,43.96,90.25,1.86,33.427166000458946,921.875,924.2024739583334,0.03225804701500421,0.10152910775842672,0.4922302119915256,64.75325965464135,0.09546778826031399,65.52098900352466,0.0010416666666666667,1,0.12997633333333333,0.0014599655893966141,1.2516413985572313e-06,34.169999999999995,0.03492849839314498,5.7430571134593447e-05,64.902,0.30183218295381886,0.8500000000000085,-0.0005034723587978425
S053,7684.0,7713.984375,W,-0.427104166666667,84.31022493131137,-578.85,362.12,940.97,3.125,51.87100426989457,953.125,916.3248697916666,4.253171687228446,5.067314989873554,8.934454548633465,65.02569182885885,3.2749087282365132,90.87353850269065,0.058333333333333334,27,0.12665657500000002,0.005702350561628804,-6.631588170461139e-07,34.281333333333336,0.03403266404826815,5.8888904863528164e-05,65.00733333333334,0.6160894595935095,2.1200000000000045,0.0008701391249292313
S053,7714.0,7743.984375,W,0.4187864583333335,41.97752280655963,-85.38,74.78,160.16,5.8149999999999995,29.395314174855653,921.875,911.6292317708334,0.3808556134073501,0.3108009366495253,0.4965855638479861,65.03031096028259,0.35253568465003227,65.24568951279464,0.0,0,0.12746785000000002,0.0011455622975203082,6.560678863031399e-07,34.35966666666666,0.01940503943710255,1.51041707639344e-05,67.20166666666667,0.1973336148646634,0.8999999999999915,0.00031211814022301783
S053,7744.0,7773.984375,W,-0.3029895833333335,36.4181604826135,-78.99,67.28,146.26999999999998,4.045,18.788994753533263,906.25,902.4983723958334,0.4377181995556299,0.12499565964686758,0.49682586235017995,64.63561122632714,0.3553914261201777,65.24568951279464,0.2625,128,0.12910108333333334,0.0014311242642489888,1.6542569591625816e-06,34.37166666666666,0.013437096247163839,-2.7430562996564806e-06,67.55966666666667,0.38407016141440775,1.5700000000000074,-0.0003735070457647152
S053,7774.0,7803.984375,N1,0.5142916666666667,33.70696242399232,-70.9,57.57,128.47,5.105,33.120169137378475,906.25,917.431640625,0.0,0.38778971024899567,0.5510396975390148,64.8969872036332,0.2277832847250619,65.03076195155643,0.0,0,0.13070205833333332,0.0012193293053685459,6.482942296805064e-07,34.362,0.015999999999998116,-1.4583337289315409e-05,65.98666666666666,0.15393360762210276,0.6600000000000108,-0.00021395839137326175
S053,7804.0,7833.984375,W,-0.40804687500000014,30.803805894589598,-62.63,56.35,118.98,3.365,35.23567176644855,921.875,928.4505208333334,0.0,0.1462753717308556,0.3834918150654877,64.9883618150464,0.08729411941489489,65.00769185258002,0.0,0,0.13167316666666667,0.0011875713545813674,6.358109363636444e-07,34.348,0.017776388834629585,-1.8194449380003636e-05,65.41933333333333,0.2642843586408819,0.8199999999999932,-0.0004747917954621843
S053,7834.0,7863.984375,W,-0.020140625000000037,81.59002176361074,-281.9,350.12,632.02,2.7350000000000003,20.218479978162552,906.25,910.302734375,7.693890678716566,13.220352050279649,13.414520888191356,64.90136289311705,5.755031388497934,129.2555608088101,0.08229166666666667,58,0.12870595,0.0049744923122029905,-3.756237998111457e-07,34.315666666666665,0.017065234314894036,-1.8854171781188113e-05,69.04299999999999,4.388989367344908,12.439999999999998,0.007499133978714725
S053,7864.0,7893.984375,W,-0.4307916666666665,72.09734060339255,-377.87,547.74,925.61,5.865,26.784945280147237,890.625,887.20703125,4.530097913883871,6.973340151839998,5.280578010337873,64.82421492691911,3.5070335197424893,92.30926280715278,0.04479166666666667,24,0.13005080833333332,0.002741786310345357,-2.865825213168727e-06,34.30533333333334,0.012310790208413426,9.236113616568105e-06,81.04033333333334,0.9886707687035607,4.320000000000007,0.0015150351332018056
S053,7894.0,7923.984375,W,0.7618020833333332,26.87635729871757,-68.17,97.39,165.56,2.675,44.22024098680733,937.5,922.36328125,0.14311453746329664,0.4759755606908826,0.45111623709970805,64.3863966276719,0.27434036788601807,65.50572494064927,0.19895833333333332,86,0.12822576666666669,0.0013208757873303446,1.241222124897495e-06,34.284,0.01171893055416335,-9.513891469695523e-06,81.41166666666668,3.947130673737005,12.83999999999999,-0.005826772413946507
S053,7924.0,7953.984375,N1,0.15834895833333335,19.525194656869484,-45.8,38.89,84.69,1.995,33.178700957095224,890.625,886.3199869791666,0.05581428468591172,0.07902948640996106,0.47563918981607145,64.55308353764289,0.09370582744150256,65.98484674529449,0.004166666666666667,3,0.13124630833333334,0.0012905075926150976,7.481254199558928e-07,34.29333333333334,0.013743685418725443,6.041668305575201e-06,70.53,0.7004379582328002,2.990000000000009,-0.0006571529560419273
S053,7954.0,7983.984375,W,-0.2665208333333333,17.64621942453206,-53.53,32.06,85.59,1.71,48.2659669546128,890.625,889.6647135416666,0.19398227564364967,0.4732137007708274,0.5171998257175096,64.72318454723748,0.29048591056832285,66.37770710110436,0.2833333333333333,104,0.13164119999999999,0.001285558131707783,1.3370229321351357e-07,34.28333333333333,0.01955050439815372,-2.6527784973899265e-05,67.31733333333334,1.07935453963108,3.8799999999999955,-0.0009865280453906367
S053,7984.0,8013.984375,W,0.62890625,84.98817871690281,-376.33,466.98,843.31,3.675,33.54815461809268,890.625,891.8538411458334,51.500443928439964,8.66796057799049,14.905549861265321,63.71164654422478,7.550389810495765,141.35416513141735,0.0625,33,0.12262170833333333,0.01962819703147992,-1.6392272024813372e-05,34.25533333333333,0.013597385369582281,-1.4583337289318566e-05,68.21300000000001,0.7288445193135045,2.1200000000000045,0.0012570489521074634
S053,8014.0,8043.984375,N1,-0.5220885416666668,58.4145764723162,-128.94,95.77,224.70999999999998,9.91,31.503753377942022,937.5,936.572265625,0.4646522277018946,0.2155998375012272,1.9386018372356233,62.403574560176715,0.2924872290044175,64.38167441127949,0.16979166666666667,71,0.11327121666666667,0.001015654380053682,7.098391682506447e-07,34.22633333333333,0.01642829537380159,-1.2812503475614293e-05,68.85100000000001,0.646953630486759,1.8499999999999943,-0.001143854476957049
S053,8044.0,8073.984375,N1,-0.06192708333333344,48.90762254447681,-104.71,92.08,196.79,8.575,31.958237839762937,937.5,930.3955078125,0.31598061649411346,0.49525088339143836,0.696231641240104,62.69449509010895,0.2945228847428004,63.20601237224193,0.025,20,0.1136875,0.0012262799435691703,-1.1257989165036112e-07,34.211999999999996,0.015362291495736135,-1.5208337458857849e-05,66.56633333333335,1.1650707656142123,3.339999999999989,-0.0020192713810957504
S053,8074.0,8103.984375,N1,-0.7371666666666667,57.0671136195625,-212.86,162.32,375.18,9.455,33.28070360032681,937.5,932.5276692708334,26.930455623775966,5.78146245855858,10.986089492007101,62.79210315005056,3.152001796754514,91.68424073961675,0.05520833333333333,24,0.11429597500000001,0.004201989150911149,-1.1228967889802489e-06,34.18266666666667,0.015477582354993032,-3.4722231641270414e-07,64.26233333333333,0.13073340132583727,0.4100000000000108,0.00015246531913664169
S053,8104.0,8133.984375,N1,0.17308854166666804,122.3104862715022,-646.04,645.77,1291.81,7.415,62.33740106865507,953.125,915.1692708333334,11.706341578807713,7.100271109358352,6.97144403269808,65.84853494214941,8.63173819724977,145.3994497926316,0.04375,16,0.12242949166666665,0.00353336913109814,-1.6094468341598403e-06,34.187,0.016155494421404522,2.6736118363750453e-06,68.18800000000002,2.0115920726297043,5.740000000000009,0.0035127092862167124
S053,8134.0,8163.984375,N2,0.5324270833333333,37.351117487255536,-90.98,60.57,151.55,7.67,50.5769915630029,875.0,885.0341796875,0.772531912321786,0.4448587478689787,0.4782498021577102,65.15091018024671,0.3558244212513168,66.82813778641449,0.18958333333333333,115,0.12124475,0.0011747757817983826,2.792999889594154e-07,34.205666666666666,0.018562207723100393,2.1770839239051033e-05,70.63433333333333,0.4495678171557906,1.4200000000000017,0.0007264932526294636
S053,8164.0,8193.984375,N2,0.32078645833333325,47.85406530815224,-202.01,186.26,388.27,7.805,27.12801524219443,906.25,905.5908203125,2.329144072266677,1.7352275182034647,1.7491934525303368,65.19391247262006,1.7207754586290265,81.49846624323675,0.026041666666666668,12,0.12251479166666666,0.0014476337698455433,1.1733727141310465e-08,34.22666666666667,0.012736648783027736,7.430557571222511e-06,68.48100000000001,1.8379396979589224,5.079999999999998,-0.0032088550371243045
S053,8194.0,8223.984375,N2,-0.47990625000000003,46.772898122109254,-99.11,84.24,183.35,5.779999999999999,44.668705299456725,906.25,895.7600911458334,3.117640639926645,1.7517241011040774,1.4338116934319591,65.01678975265989,1.3950687886572264,75.47847375245475,0.022916666666666665,12,0.12107399999999997,0.0012477351682147941,-5.610934681785662e-07,34.234,0.013063945294843917,8.055557740764633e-06,67.59333333333333,0.43818058174937613,1.5,0.0002545834023935009
S053,8224.0,8253.984375,N2,-0.13830208333333333,37.44140708510982,-180.72,268.48,449.20000000000005,2.79,28.996396332307352,890.625,880.8675130208334,0.9595050581405092,1.0467189974975242,0.7700756411259582,64.93252217502861,0.960610390715199,72.61542535852834,0.016666666666666666,8,0.12010291666666667,0.0018392930008716798,1.2657989544810527e-06,34.226666666666674,0.009067647005822434,1.0416669492374193e-06,67.86866666666667,0.492163477808836,1.4599999999999937,0.0008782641271332804
S053,8254.0,8283.984375,N1,0.36017187500000036,78.19254110395298,-437.82,653.84,1091.66,5.235,56.666807941185866,828.125,841.650390625,6.641660131740825,6.828154080792383,14.781632600169337,64.98643734466157,3.9010472416658684,108.1387996974259,0.04375,20,0.13330615833333334,0.003577928967982814,1.6830714201040105e-06,34.24466666666667,0.017074997966488675,1.638889333466189e-05,69.18033333333332,0.7386992321341305,1.9699999999999989,0.0012205906088841698
S053,8284.0,8313.984375,N1,-0.04207812500000019,46.281672747384356,-136.33,94.06,230.39000000000001,4.765000000000001,52.37853695669428,843.75,843.3675130208334,1.5869719019908115,0.7920989773573474,0.9574265410971341,64.75193480137312,0.49630079460386567,67.86015030929418,0.046875,29,0.13485395,0.0013655657609577103,1.1998258463069282e-06,34.264,0.012806248474866257,1.4097226046340475e-05,70.56733333333335,0.6070032033596608,1.5800000000000125,0.001009791940590264
S053,8314.0,8343.984375,N1,0.04473958333333332,46.998929410844205,-103.02,91.79,194.81,5.385,47.98595560321309,859.375,864.0950520833334,0.5253873818828034,0.2351284186649689,0.3916098695520269,64.56888180098751,0.27786922002210424,66.06814663663572,0.09895833333333333,50,0.13701029166666664,0.0012802545085244664,6.46065062409141e-07,34.29600000000001,0.012806248474866257,1.1180558588476668e-05,70.29966666666665,0.7845103922546566,2.160000000000011,-0.0013228823032992347
S053,8344.0,8373.984375,N2,-0.40262499999999996,39.59272845544842,-83.75,82.84,166.59,3.895,26.014307273201826,859.375,865.1123046875,0.4997872811395753,0.18521758975744054,0.24062274529968183,64.56941452487065,0.24807508692837002,65.6505902486794,0.034375,30,0.1386222,0.001337967772407087,1.322912685251914e-06,34.316,0.013808210118137692,6.597224011833493e-06,69.19200000000001,0.6197870602069705,1.5300000000000011,-0.0010584030648879822
S053,8374.0,8403.984375,N2,0.2298229166666666,49.78561594236139,-110.59,96.53,207.12,6.44,33.388226728560966,906.25,906.3395182291666,0.4883528419738017,0.12801909579781012,0.44111108924573134,64.56826835432639,0.21930965252492277,65.6505902486794,0.016666666666666666,16,0.1407036,0.0012981613690138847,4.813699222466157e-07,34.333999999999996,0.011135528725660381,6.250001695423159e-06,68.66266666666667,0.2512758554966152,0.9000000000000057,-0.00023263895199624506
S053,8404.0,8433.984375,N2,0.1892552083333334,47.709787942717114,-102.03,90.73,192.76,3.855,55.49930691978404,875.0,877.8645833333334,0.4856222740521234,0.3251852436817103,0.5050515220554785,64.49495598412231,0.3363816376129695,65.81033353509159,0.11354166666666667,85,0.14244305833333334,0.0010442977089559098,4.3044477822395366e-07,34.34933333333335,0.014817407180592915,1.09722251986276e-05,67.413,0.2436000821017917,0.8299999999999983,-0.00023586811953887793
S053,8434.0,8463.984375,N2,-0.029489583333333128,39.85641706814987,-126.39,146.04,272.43,2.35,30.707568320860435,875.0,883.7076822916666,1.4079372593936454,0.8242993394645337,1.379911917856233,64.66847669076937,0.6539922237702056,70.05711955254797,0.06979166666666667,39,0.14176008333333331,0.001569905541656003,-1.9189475691589568e-06,34.379666666666665,0.01580787426850563,6.215279463781392e-06,67.29866666666666,0.15396392073758317,0.5799999999999983,0.00012465281159201739
S053,8464.0,8493.984375,N2,0.17294270833333328,49.88102182878993,-108.6,101.99,210.58999999999997,6.26,39.93589347138004,890.625,885.7828776041666,0.40980681212479725,0.27321866242992987,0.44385146531682074,64.90730502968509,0.2815204848951102,65.1766829472013,0.0,0,0.14020196666666665,0.0013724232639953126,1.1882099577392443e-06,34.39133333333333,0.011469767022723341,7.500002034505353e-06,69.01466666666667,0.536909261938696,1.8299999999999983,0.000542777925015714
S053,8494.0,8523.984375,N2,-0.6244427083333336,50.03124629296102,-140.24,113.64,253.88,4.54,49.91182857985015,890.625,888.5009765625,0.3210226714043037,0.05589199343873463,0.25523809350290955,64.65862282165634,0.14431957633269707,65.92419889539804,0.115625,74,0.142154975,0.0012258922360366793,6.379530810419618e-07,34.41666666666666,0.013984117975602851,8.61111344702596e-06,68.83533333333334,0.12021462288571837,0.3299999999999983,0.00015208337458858792
S053,8524.0,8553.984375,N2,0.7040364583333333,47.881862724060284,-110.89,95.16,206.05,7.48,24.07655159789802,890.625,887.5325520833334,0.5039944609483983,0.10642856726723121,0.4704413929137897,64.77201248716774,0.21394710136834544,65.46754921333164,0.2375,97,0.14389469166666669,0.0010906341259089732,6.112607994956615e-07,34.42666666666667,0.013743685418727053,5.9027793790095184e-06,67.49833333333332,0.4953320995946962,1.6500000000000057,-0.0006614932349970822
S053,8554.0,8583.984375,N2,-0.19671874999999972,51.287350481787726,-121.09,126.51,247.60000000000002,5.234999999999999,31.333852166756877,875.0,886.8896484375,0.46223598883578937,0.0,0.49052546761100996,64.82131849451712,0.1848475922807086,65.03076195155643,0.20208333333333334,126,0.145175675,0.0012648411043980972,8.225868116826217e-07,34.43533333333333,0.013597385369582885,1.2777781243974774e-05,68.32966666666667,0.3716493269497765,1.4199999999999875,0.0006182987788353882
S053,8584.0,8613.984375,N2,-0.02901562499999987,40.88225489031179,-99.99,89.19,189.18,2.08,50.09298949372649,875.0,866.6829427083334,0.6701010172085168,0.1953895681282226,0.5248170564190281,64.73396128357496,0.2493455499608923,65.79513659838392,0.08958333333333333,68,0.14692637500000003,0.0011740073612950567,5.512638214148768e-07,34.446,0.015832456116051236,1.3750003729928166e-05,68.8,0.13674794331177356,0.5400000000000063,-1.8680560622983984e-05
S053,8614.0,8643.984375,N2,-0.199572916666667,44.82513060523007,-113.23,94.84,208.07,5.47,51.845689303596544,906.25,885.1481119791666,0.4567729119108921,0.25464435984329203,0.47696505083939034,64.59755803426314,0.26472503345736936,65.50572494064927,0.171875,87,0.14661679999999996,0.0012802881355382394,5.50429836813647e-07,34.45066666666666,0.008137703743822052,1.8750005086257708e-06,68.64666666666666,0.39871738807776597,1.1800000000000068,-0.0007081946365545353
S053,8644.0,8673.984375,N2,0.024927083333333235,47.3304326252643,-103.45,106.54,209.99,4.539999999999999,34.22513332274409,875.0,885.3352864583334,0.49620849777476495,0.09654963281764578,0.14037013942312185,64.66679754564865,0.22380093109240196,65.79513659838392,0.434375,138,0.14795116666666666,0.0011336802704270512,6.746946274670751e-07,34.43933333333334,0.01611072796479393,-1.00000027126747e-05,68.28800000000001,0.15131424255502346,0.5300000000000011,2.4166673222296153e-05
S053,8674.0,8703.984375,N2,0.4563958333333339,91.52227529877166,-515.26,588.71,1103.97,6.24,44.146997372527174,921.875,891.7399088541666,7.757026384725873,11.146617524983256,25.904218523753787,65.14590097787492,2.7049573220750593,88.73556220591607,0.04479166666666667,28,0.15079030833333332,0.01017460621252393,-2.7778889913978354e-06,34.434666666666665,0.011175369742828553,-4.6527790399255966e-06,67.59,0.20175893206167228,0.730000000000004,0.0002279167284930358
S053,8704.0,8733.984375,N2,-0.48811458333333313,70.2588903729998,-163.81,135.4,299.21000000000004,10.31,46.7361931078215,921.875,928.8004557291666,0.5943445488168738,0.3434262996101039,0.5371243842599837,65.00259241997163,0.3035545251083214,66.1362230551458,0.215625,111,0.14296604166666668,0.0011713584449677356,-1.13180477750781e-06,34.43533333333333,0.01024152766382641,9.72222485954603e-07,67.73333333333333,0.46353952246695085,1.3700000000000045,-0.0008235418900667014
S053,8734.0,8763.984375,N1,0.05592187499999994,60.072989318066064,-155.63,119.05,274.68,7.415,49.75327707697665,875.0,871.5657552083334,1.0243513996332292,1.4698617984685576,1.7572688202427147,65.0964094142956,0.588237225168499,69.52697318307479,0.07604166666666666,49,0.14232567499999998,0.0011235648265120288,1.356404447809368e-07,34.434,0.013063945294845659,-3.7500010172534656e-06,67.20466666666667,0.4079684083629783,1.0999999999999943,0.0006395140623681805
S053,8764.0,8793.984375,N2,-0.34724999999999995,78.38182272629179,-167.34,137.0,304.34000000000003,11.379999999999999,46.496232174089336,875.0,875.9521484375,0.8329419653903466,0.7519585249625733,0.7624480572016402,65.03584620991657,0.5324466421603328,69.6993543729065,0.06354166666666666,41,0.14193081666666665,0.0011607274226631457,1.1926218512971588e-07,34.41999999999999,0.01238278374733917,2.708334068016565e-06,67.605,0.5750289847767087,1.6199999999999903,0.0009632988724226527
S053,8794.0,8823.984375,N2,0.18018229166666658,75.17223500775083,-168.75,134.3,303.05,12.15,20.60742120396614,875.0,880.7861328125,0.49895615865914406,0.4479844909889924,0.36192333202473814,65.01537004577881,0.3469982859436103,65.91661399070799,0.18333333333333332,109,0.14252848333333334,0.001311943723280676,8.917936446922892e-07,34.419999999999995,0.012382783747339742,4.6527790399255966e-06,68.47533333333334,0.42884133299961785,1.1099999999999994,-0.00066034740135292
S053,8824.0,8853.984375,N2,-0.041932291666666545,67.51859146179665,-149.92,114.2,264.12,11.995,23.291555878677705,890.625,883.9192708333334,0.5377815396376115,0.8514635837045528,0.6626146389284063,64.98481464697961,0.3578155451763593,66.24198064671678,0.221875,105,0.14253918333333332,0.0013551925138969119,1.1060593278155706e-07,34.40733333333333,0.014360439485691639,4.305556723512252e-06,68.09266666666666,0.22608159785548312,0.6299999999999955,-0.0003095834173132089
S053,8854.0,8883.984375,N2,0.35550000000000015,64.29585937986857,-136.38,122.35,258.73,11.795,24.697781767705347,859.375,854.345703125,0.4986788100125727,0.4786954204455643,0.41170878453573084,65.06562884800113,0.3265745665199328,66.1362230551458,0.16979166666666667,106,0.14146129999999998,0.0009609821850586022,6.412762156239748e-08,34.403333333333315,0.015776212754931972,2.777778531302063e-07,68.10966666666667,0.21191953399554445,0.769999999999996,0.00036690982175288027
S053,8884.0,8913.984375,N2,-0.1495885416666668,74.586637946023,-167.5,131.88,299.38,11.23,29.729577968561802,875.0,870.8089192708334,0.26671345618159825,0.5141223897062082,0.38795755915864477,65.03770020854066,0.30043288322833867,65.91661399070799,0.25833333333333336,100,0.14181346666666664,0.0012169138420154888,3.9074229349563203e-07,34.40333333333333,0.014907119849997751,-5.555557062596863e-06,69.261,0.24868118813720766,0.7999999999999972,0.00040059038644487554
S053,8914.0,8943.984375,N2,0.05011979166666638,71.08392582624475,-150.44,184.5,334.94,11.16,39.149804780553744,859.375,859.5703125,0.39155583538267213,0.3312434485725298,0.3028922359474112,64.99215254572582,0.2819263611416031,66.52818951391959,0.14166666666666666,84,0.14251779166666667,0.0011776407764101477,7.173938577999861e-08,34.413999999999994,0.013063945294843917,8.055557740765126e-06,69.696,0.14451297519600162,0.45000000000000284,-1.5555559775270454e-05
S053,8944.0,8973.984375,N2,-0.48301562499999984,63.57183106959735,-146.66,119.75,266.40999999999997,9.965,27.001642858107303,843.75,849.9593098958334,0.44594892387843404,0.2998191005515752,0.39210967853395307,64.96365548901285,0.2490123922973636,66.94774081326419,0.06458333333333334,45,0.14241106666666664,0.0011452569925081868,4.0577137743364315e-07,34.428666666666665,0.012578641509410772,-2.500000678168977e-06,69.83333333333333,0.34556555898346597,0.9099999999999966,0.0006127779440044326
S053,8974.0,9003.984375,N2,0.4622135416666666,63.76148599260882,-133.81,113.73,247.54000000000002,11.67,22.930574531734738,859.375,859.9772135416666,0.4459878528957438,0.4838527650679377,0.48131312717283004,65.00170001317366,0.3224831737910155,65.91661399070799,0.10208333333333333,69,0.14433234166666667,0.0012807777617254929,3.2967912588952036e-07,34.42399999999999,0.011718930554166463,-7.638890961071883e-07,70.11966666666667,0.08336599359984395,0.23000000000000398,5.9201404948298016e-05
S053,9004.0,9033.984375,N2,-0.8329739583333335,65.01629251387165,-149.94,116.66,266.6,9.344999999999999,21.907521852923047,828.125,829.7037760416666,0.5517491126710884,0.3494648065852507,0.4751461763382811,65.0298668975722,0.30061539776920465,65.91661399070799,0.034375,27,0.14454585833333333,0.0012447007022830404,9.140282427376981e-07,34.434,0.01404753833713918,1.2083336611150057e-05,70.18333333333334,0.24427216151024772,0.8499999999999943,0.000274166741039155
S053,9034.0,9063.984375,N2,1.00084375,68.71553203786186,-157.25,122.82,280.07,13.67,27.675608189688667,859.375,863.0533854166666,0.12499565964686757,0.14683805681959824,0.3342289400620479,65.21026020925665,0.25017681954528237,65.64297372910524,0.0020833333333333333,2,0.14519702499999998,0.0011669977182389853,5.657195545029176e-07,34.443333333333335,0.014907119849999232,1.2916670170537396e-05,70.99499999999999,0.09928914005737634,0.3200000000000074,-7.531252042982693e-05
S053,9064.0,9093.984375,N2,-0.15450000000000005,69.3973416214555,-152.1,127.22,279.32,12.004999999999999,31.72049364664462,875.0,871.1100260416666,0.38445826785520193,0.3259334884434076,0.09677414104501265,65.1850432707988,0.2387651232634718,66.37770710110436,0.003125,3,0.14522905,0.0012722522145785394,-9.273908765708746e-07,34.45133333333333,0.011469767022722982,2.7777785312978766e-06,70.39933333333333,0.4346411035427852,1.3600000000000136,-0.0007729168763337909
S053,9094.0,9123.984375,N2,0.2662708333333335,67.52845206026727,-162.3,127.75,290.05,11.665,36.326869819860875,875.0,878.0029296875,0.43597825625890513,0.2617030727062426,0.11172573064826602,65.18751188910366,0.20605915324099833,65.46754921333164,0.004166666666666667,1,0.14580549999999998,0.0012077383822666182,1.0591604435656532e-06,34.449333333333335,0.013148721948877553,1.5972226554967482e-06,69.31333333333335,0.11911712256803836,0.480000000000004,-6.645835136131536e-05
S053,9124.0,9153.984375,N1,-0.007557291666666781,73.15207301774566,-222.08,348.76,570.84,5.19,40.2302456972325,843.75,846.8343098958334,17.518841048045008,10.812881134901096,10.543382600791203,65.04144819072272,2.7052450142022457,89.53211714239757,0.040625,24,0.11295125833333335,0.039869773577338806,-5.1087382130908785e-05,34.46866666666668,0.01257864150940831,1.5277781922134626e-06,68.89066666666666,0.11360555541971609,0.3299999999999983,0.0001472917066220981
S053,9154.0,9183.984375,N1,-0.19713020833333322,30.62627741287775,-76.57,79.95,156.51999999999998,2.9800000000000004,69.99121648691593,890.625,869.1569010416666,0.8250466895458436,1.5913417943978039,0.982924968171811,64.8143506082363,0.3445362573367013,65.67343450741707,0.15833333333333333,86,0.08755810000000001,0.007081234018399147,1.1287408443849943e-05,34.47200000000001,0.01077032961426924,4.375001186795784e-06,69.35300000000001,0.19194009482127514,0.5600000000000023,-0.00017302088026825143
S053,9184.0,9213.984375,N2,-0.09360937499999998,24.716012274508646,-57.63,64.99,122.62,1.3,46.82596538322707,875.0,873.5677083333334,0.3301261727439307,0.7488156157485558,0.6620641910385696,64.62484163814631,0.2951862313464278,65.76473218982953,0.12708333333333333,83,0.10325919166666667,0.003177196621488387,4.169375479973816e-06,34.47066666666667,0.013148721948877168,-1.0347225029086246e-05,68.77433333333332,0.22538387007256927,0.5999999999999943,-0.00039253482870410864
S053,9214.0,9243.984375,N2,-0.0008697916666667934,24.465547032249503,-63.38,52.06,115.44,2.56,18.114291129699513,859.375,872.0703125,0.48902894142939585,0.5970849325403101,0.6127125481550599,64.76585948635547,0.3737579345777056,65.55913361233506,0.29583333333333334,129,0.10656820000000002,0.0014847079207709504,1.4072100171468142e-06,34.472,0.0119443152447794,-1.2152781074430653e-05,68.32933333333334,0.27547454006173044,0.9500000000000028,0.0003129861960140506
S053,9244.0,9273.984375,N2,0.301234375,24.34276153721201,-95.8,65.47,161.26999999999998,3.225,40.56899212133021,859.375,869.6207682291666,0.5477215669759186,0.7148528099759807,1.05951326531337,64.8440414064898,0.3280026525858738,65.91661399070799,0.20729166666666668,104,0.10795595000000002,0.0017200999527643734,-3.002344564438123e-08,34.45733333333333,0.015040685563570546,5.3472236727503125e-06,69.38099999999999,0.15653221180745305,0.5699999999999932,9.774308207006121e-05
S053,9274.0,9303.984375,N2,-0.31477083333333333,49.18565048460085,-377.09,287.73,664.8199999999999,1.7850000000000001,37.47160419265197,859.375,857.1044921875,10.32776206497968,8.564479444760332,10.68243951019096,65.07291790119972,2.1405659275967186,94.2443632266673,0.028125,16,0.11856578333333334,0.009292081656965906,1.3126485765648266e-05,34.45733333333333,0.015902480589168187,-5.06944581961976e-06,69.22166666666666,0.26774469597402417,0.9699999999999989,0.00024031256518895533
S053,9304.0,9333.984375,W,-0.14910416666666673,39.16865747462057,-83.02,76.25,159.26999999999998,3.995,37.492186120770214,843.75,842.5455729166666,0.49660195153048775,0.5071868474870862,0.4784233364802441,65.18934161410645,0.3350222669144654,66.19667665374146,0.021875,19,0.12415860000000002,0.001340807197176386,-7.611499460584691e-07,34.463333333333345,0.01299572579307749,7.916668814199664e-06,70.45766666666667,0.37435885932558594,1.3199999999999932,0.0006363543392888249
S053,9334.0,9363.984375,N2,-0.059208333333333425,45.027400301537845,-89.87,80.78,170.65,3.92,23.07827923802884,890.625,884.0169270833334,0.4182664600433822,0.25179692751964494,0.16532992583014122,65.04820203967782,0.27224940511604134,65.92419889539804,0.21145833333333333,134,0.12344339166666667,0.001059684522989689,-2.5990480140646707e-07,34.49433333333333,0.012827920936596017,8.854169068513735e-06,71.27633333333333,0.48154254456093654,1.6500000000000057,-0.0006896182426264756
S053,9364.0,9393.984375,N2,0.17370833333333316,42.349760295444376,-93.47,127.33,220.8,3.7800000000000002,33.01724531734403,828.125,836.9954427083334,0.9458218611639062,0.5791507416875353,0.7001480188245117,65.08357431149182,0.3668853233944544,66.82065548915246,0.23958333333333334,131,0.122749575,0.0027288561573868874,-5.626509772816226e-07,34.50933333333333,0.01730767331432951,7.29166864465826e-06,69.75566666666667,0.1257161706207898,0.4000000000000057,0.00011913197676105903
S053,9394.0,9423.984375,N2,0.24182812499999992,42.188230580607936,-104.42,113.74,218.16,4.365,29.749397533524714,875.0,865.1123046875,0.6637558524014853,0.5846998502912033,0.5271440594135535,65.09613284489758,0.25970555015180075,66.15134163416491,0.165625,91,0.12324056666666668,0.0011359308351401585,3.947917737607864e-08,34.53033333333333,0.01957606248003385,2.2673617261722277e-05,69.83633333333334,0.20450726691788113,0.6499999999999915,0.0002823264654748427
S053,9424.0,9453.984375,N2,-0.8250104166666667,36.71207667443905,-96.52,73.8,170.32,2.755,21.253043997660598,859.375,861.0758463541666,2.2429277354361843,1.2163526992155231,1.8700443770729671,65.11649142868926,1.3247807431567318,76.43951857514541,0.03125,13,0.12241874166666666,0.0015569191399247059,-1.0785560651465019e-06,34.56033333333334,0.017978382080216952,1.6979171272562913e-05,70.15866666666668,0.39649071727959617,1.230000000000004,-0.000605555719823056
S053,9454.0,9483.984375,N2,0.6036249999999997,32.57429302579273,-90.15,179.98,270.13,1.68,42.32790388873555,843.75,836.9384765625,0.4124316020734697,0.5196141981610545,0.5436172810570769,64.98590025862423,0.35275238172277024,65.99242380758567,0.18125,115,0.11982544999999997,0.0010568110273364837,6.948916815569888e-08,34.59266666666667,0.016918103387265522,1.6666671187789656e-05,69.96166666666667,0.32909049751634484,1.0699999999999932,0.000529062643517427
S053,9484.0,9513.984375,N2,0.023307291666666636,27.50923895654098,-68.05,62.07,130.12,3.245,29.55129957588449,859.375,861.6373697916666,0.41188796135397465,0.6547892141220376,0.5200786198579338,65.06678677837066,0.32712128950883645,66.1362230551458,0.18229166666666666,104,0.11822428333333335,0.0012766777143777878,-7.083283171463538e-07,34.60600000000001,0.010832051206180174,1.1111114125192991e-06,70.63133333333333,0.10984028809543872,0.4200000000000017,2.493056231840016e-05
S053,9514.0,9543.984375,N2,-0.040140624999999895,30.040231068293643,-77.42,110.46,187.88,2.1900000000000004,46.86766390438142,859.375,857.1940104166666,0.5679051646548627,0.9121479533983996,0.6405352240617911,64.94649907286201,0.49388748253089015,71.8679344353238,0.090625,65,0.11803214999999999,0.0012447251413464748,4.709233048294552e-07,34.61866666666667,0.018390818965511077,2.034722774176109e-05,70.39633333333335,0.2292812440843979,0.7000000000000028,0.00014413198354274934
S053,9544.0,9573.984375,W,-0.18990104166666671,29.429865530553435,-68.78,83.56,152.34,2.5949999999999998,43.73421081340124,828.125,821.4436848958334,0.49237237489074825,1.5703621640847338,1.034173045911026,65.02809417446512,0.3993344924952669,66.52818951391959,0.14270833333333333,86,0.11875803333333333,0.0012395397595702832,-1.24038054480809e-06,34.63999999999999,0.011254628677421148,3.1250008477104814e-06,69.96300000000001,0.4153644985632098,1.4699999999999989,0.0005043404145888716
S053,9574.0,9603.984375,N2,0.10981770833333337,32.1115970227609,-69.25,63.73,132.98,3.275,48.885626271625775,851.5625,857.3323567708334,0.49999023427963085,0.7685636630537945,0.5286086296432677,65.11215918003717,0.38386444678036385,65.99242380758567,0.15625,105,0.11928106666666666,0.001232606220800281,2.727292406492085e-07,34.654999999999994,0.011180339887498312,5.937501610650026e-06,71.29166666666667,0.4084203988811308,1.1800000000000068,-0.0004905209663956602
S053,9604.0,9633.984375,N2,0.31476562499999994,30.14267934112253,-85.26,67.88,153.14,2.54,74.39431245179162,812.5,801.5218098958334,0.4969426928032603,0.9489554747487131,0.9979748373790126,65.03811140849439,0.3389657056492293,66.58077800686922,0.17395833333333333,103,0.11907827499999997,0.00128020392882345,1.0621769374394855e-07,34.66666666666666,0.012202003478483022,1.1111114125194098e-05,72.23033333333333,0.46860419213755267,1.5499999999999972,0.0007800349338202394
S053,9634.0,9663.984375,N2,0.0026093749999999065,32.2509069674391,-75.64,65.81,141.45,3.085,43.838481136650515,875.0,877.2623697916666,0.2560381915956203,0.40896528479403566,0.45357257588750033,64.89748389261905,0.29033212116819085,65.99242380758567,0.271875,117,0.11974004166666667,0.0010713524271983908,1.9070426180128624e-07,34.706333333333326,0.017026123718829295,2.0104172120272478e-05,71.218,0.37300044682725664,1.3399999999999892,-0.0005095834715666979
S053,9664.0,9693.984375,N2,-0.04476562499999996,32.107219941017966,-90.62,71.73,162.35000000000002,1.96,33.76791898282386,859.375,856.5104166666666,0.21467180619494491,0.5797499685568485,0.5303137174247795,65.04730345970118,0.26295618433557477,65.98484674529449,0.058333333333333334,43,0.12039100833333333,0.0011272939390108293,2.4366564769575937e-07,34.731333333333325,0.017074997966487603,1.7083337967485865e-05,69.98366666666668,0.5976034545489906,1.8100000000000023,-0.001074271124748024
S053,9694.0,9723.984375,N2,-0.20186979166666671,33.069950450612446,-70.62,67.38,138.0,1.71,21.659222815775234,843.75,854.19921875,0.2870750936166354,0.4755650422129449,0.40116475383839767,64.92237473190565,0.2884022133815172,65.75712889109438,0.21770833333333334,108,0.12118074999999999,0.001124814379131065,-2.0094232881465093e-07,34.75866666666666,0.015216949614018685,1.2013892147866674e-05,69.71766666666666,0.34460299218408036,0.9500000000000028,0.0005935765499068306
S053,9724.0,9753.984375,N2,0.29542187499999994,31.740013531639967,-68.01,70.63,138.64,3.18,26.77275773193356,812.5,817.3502604166666,0.37343277832905286,0.5205791046197175,0.41444721383495337,64.95505626400146,0.3129814803951355,66.1362230551458,0.125,87,0.12054045,0.0013613288535471496,-9.315670929815205e-08,34.776666666666664,0.01490711984999796,9.166669153284302e-06,70.48866666666666,0.3936558000193684,1.3500000000000085,0.0006850001858181928
S053,9754.0,9783.984375,N2,-0.5340781249999998,35.907469876059864,-75.67,69.51,145.18,3.425,20.703681602433374,843.75,846.142578125,0.48732190479075416,0.3080780897353786,0.26206975322527315,64.97376083925187,0.3749809822255165,65.98484674529449,0.3489583333333333,176,0.12153289166666666,0.0012610754127320163,5.801813639814907e-07,34.79333333333334,0.013743685418725443,1.0902780735345845e-05,71.88866666666667,0.16552408351119782,0.7000000000000028,0.0002884028560120584
S053,9784.0,9813.984375,N2,0.40975,34.051358592878984,-75.61,73.83,149.44,2.57,26.66033386494241,843.75,843.3512369791666,0.49997287252798917,0.3435352864780495,0.331007510824486,65.06118877380116,0.3722772351480387,65.98484674529449,0.03229166666666667,28,0.12175702499999999,0.0012404745762711158,-3.6596212184302436e-07,34.82633333333333,0.014255603186895813,1.2673614549049845e-05,71.91633333333334,0.24126725614738728,0.789999999999992,-0.00042711817141877516
S053,9814.0,9843.984375,N2,-0.08147916666666663,31.649874492898586,-68.12,63.73,131.85,2.995,21.712209080984945,843.75,841.4225260416666,0.4959460218584501,0.28840437467787017,0.32651722506460346,65.09218191312947,0.37296620230389665,66.34003316248794,0.029166666666666667,23,0.12242934999999999,0.0010915907096984657,3.9295670381855093e-07,34.84933333333334,0.01842703328144536,1.5902782091683304e-05,71.25833333333334,0.04487637339278542,0.1799999999999926,4.038195539874765e-05
S053,9844.0,9873.984375,N2,0.11772916666666662,32.134715185475805,-66.19,63.88,130.07,2.5,77.32960949556231,859.375,845.3206380208334,0.49964831381682845,0.08538490263051322,0.17372739161462772,65.01750515725708,0.3638082728334634,65.75712889109438,0.4625,203,0.12250403333333333,0.0011190071189327714,-3.193164928701429e-07,34.864333333333335,0.01745152015027617,8.993057995076704e-06,71.23299999999999,0.3299914140297194,1.0600000000000023,-0.00045586817921771376
S053,9874.0,9903.984375,N2,-0.4583541666666668,31.473526017902188,-66.48,62.69,129.17000000000002,2.535,20.760879092912973,843.75,849.7314453125,0.528237989228235,0.2053853931569191,0.38142072680090855,65.02332326740282,0.44922851960895455,68.97100840208152,0.021875,17,0.12302707499999999,0.0011558046847867495,-8.359594281573443e-09,34.880333333333326,0.014255603186895636,6.701390706757387e-06,70.19000000000001,0.09003702941938216,0.3400000000000034,-5.4166681360316675e-05
S053,9904.0,9933.984375,N2,0.2422656250000001,30.148793266727278,-62.87,63.94,126.81,2.36,42.321069045989546,875.0,878.2958984375,0.3054766312211496,0.1823839052353274,0.2906809981893095,65.2736840336326,0.2687272672461364,65.75712889109438,0.014583333333333334,13,0.123048425,0.0011183222229639348,6.949806572755674e-08,34.895999999999994,0.0147422295916634,1.3680559266643797e-05,69.65166666666667,0.21559349608825196,0.6799999999999926,-0.00028309035457095046
S053,9934.0,9963.984375,N2,-0.0019166666666666997,34.475708315078734,-73.58,67.84,141.42000000000002,2.5599999999999996,18.457569471043627,859.375,858.447265625,0.21358993356949718,0.24944382578492938,0.25609751560684846,65.30847394202087,0.21189155491783165,65.98484674529449,0.003125,2,0.12277093333333333,0.0012111467206283827,9.33763274132833e-08,34.916000000000004,0.015620499351813779,7.152779718092823e-06,69.38366666666667,0.23130763546027344,0.6300000000000097,-0.0004130209453724377
S053,9964.0,9993.984375,N2,0.10291145833333355,32.816187180333124,-66.63,63.27,129.9,2.8,34.271151764384584,859.375,854.7770182291666,0.1874276480775686,0.30547663122114954,0.22935361692640088,65.30682296277418,0.20946242830792397,65.39877674696982,0.0,0,0.123720925,0.001078069301749658,6.924852138903021e-07,34.93266666666666,0.0112348663642369,8.888891300156363e-06,69.443,0.2997348828548325,0.8000000000000114,0.0005315626441955968
S053,9994.0,10023.984375,N2,-0.12019270833333354,31.93442237151702,-68.87,65.58,134.45,2.6500000000000004,22.030268738209426,828.125,837.6546223958334,0.3,0.44385146531682074,0.27366310137750677,65.22701333984546,0.28184942248537537,65.98484674529449,0.016666666666666666,14,0.125279475,0.001113019137021015,1.676309048477931e-07,34.95533333333333,0.014544949486180275,1.3194448023666963e-05,70.27633333333333,0.2404645966087773,0.7900000000000063,0.00042961817209694265
S053,10024.0,10053.984375,N2,-0.20289583333333347,30.38467418729903,-68.76,66.48,135.24,2.035,40.369173834862515,859.375,858.3821614583334,0.3410547747430022,0.4422166387140533,0.30600897544934125,65.20309632050349,0.30444794707139455,65.98484674529449,0.026041666666666668,18,0.12567445000000002,0.0012829555906187892,-4.903829455248882e-07,34.968,0.010770329614268317,-2.013889435191035e-06,71.028,0.15693735480545792,0.46000000000000796,-2.1666672544127782e-05
S053,10054.0,10083.984375,N2,0.399109375,32.01167966521027,-68.13,62.57,130.7,2.395,25.266528619122393,828.125,827.8889973958334,0.3782139472977637,0.4529405754958983,0.30900124730061096,65.19178132851113,0.3201258329464125,67.06713054842886,0.029166666666666667,20,0.1251406916666667,0.0011879029056551266,6.78279263856133e-08,34.988000000000014,0.011075498483890917,-6.250001695424913e-07,70.67499999999998,0.13331041469692959,0.38000000000000966,0.00019739588688039907
S053,10084.0,10113.984375,N2,-0.2817812499999998,32.14435864927129,-70.68,64.28,134.96,1.4649999999999999,24.136173478445453,843.75,843.4733072916666,0.27638539919628335,0.33653249956562725,0.27188098652412845,65.26069203867387,0.2609909960810809,65.98484674529449,0.00625,6,0.125813225,0.001242663540293593,-5.879591438691264e-07,34.998333333333335,0.013186693629901308,1.4201392741262467e-05,71.00833333333334,0.13545191848852536,0.5200000000000102,0.00021086811275719018
S053,10114.0,10143.984375,N2,0.3560104166666666,32.28023695280222,-66.1,64.89,130.99,2.7,21.75345029539759,812.5,819.5556640625,0.24016912082368588,0.35379269471448016,0.229807343073618,65.27613227520665,0.23605477413381976,65.64297372910524,0.0010416666666666667,1,0.125343525,0.0011130191370210152,-1.342715207984817e-07,35.00033333333333,0.014715826703096024,3.854167712176396e-06,72.07000000000001,0.28290163190291595,0.8599999999999994,0.00047291679495355577
S053,10144.0,10173.984375,N2,0.04516145833333323,32.62201759476409,-65.97,64.41,130.38,2.2649999999999997,25.956024489737292,796.875,793.1233723958334,0.2157809420003434,0.4182664600433822,0.2160146439223251,65.26467748837317,0.23495887293186157,65.64297372910524,0.004166666666666667,3,0.12599469166666669,0.001225680238315536,7.427781962831491e-07,35.01633333333333,0.016428295373802318,-1.8402782769854351e-06,72.76899999999999,0.5889784942310434,1.8100000000000023,0.0009952433255325866
S053,10174.0,10203.984375,N2,0.028291666666666573,31.116169796598744,-66.6,63.26,129.85999999999999,2.62,18.632876193695004,765.625,766.0807291666666,0.31019811937516467,0.4999826385874703,0.3971892893787825,65.2106746141955,0.2872276011302646,65.98484674529449,0.075,48,0.1264217,0.00104068931963387,2.3407167807934057e-07,35.038,0.0139999999999985,1.2500003390841775e-05,75.00500000000001,0.5021271419338589,1.8900000000000006,0.000892604408801107
S053,10204.0,10233.984375,N2,-0.28259374999999987,29.300725400604467,-63.39,65.75,129.14,2.7,38.77086279456461,734.375,746.1344401041666,0.25535709949772084,0.6468372573530378,0.5650059918561336,65.17642989566573,0.2825969840058676,65.98484674529449,0.04895833333333333,33,0.127265025,0.001081867932963635,-1.175918287738254e-07,35.04600000000001,0.011999999999999032,-8.333335593897822e-07,77.77400000000002,0.8391765805438891,2.7700000000000102,0.001488125403679852
S053,10234.0,10263.984375,N2,-0.017343750000000064,32.50876218304079,-74.09,63.71,137.8,3.9400000000000004,40.2543858678433,734.375,740.4947916666666,0.3889742899779996,0.5480780418248441,0.46315644105300846,65.10950963322331,0.3123918285338988,65.75712889109438,0.08645833333333333,62,0.127286375,0.0012922924144229161,8.726258877565909e-07,35.041999999999994,0.012220201853214227,4.722223503207624e-06,79.56466666666667,0.6035988366088484,1.8999999999999915,0.0010291669458460672
S053,10264.0,10293.984375,N2,0.18295312500000005,31.52914491945459,-72.84,66.84,139.68,2.6399999999999997,43.375205204087706,750.0,753.1087239583334,0.4935521755599908,0.9495041651947728,0.5972121284676735,65.07104283317193,0.33386814289121325,65.98484674529449,0.18125,100,0.12721165,0.0010967750806341319,2.796628362800671e-07,35.06600000000001,0.017435595774164443,1.9722227572220798e-05,80.19033333333333,0.36331330220012154,1.1100000000000136,-0.0004857987428924568
S053,10294.0,10323.984375,W,-0.4322916666666666,36.16605662971977,-79.87,76.92,156.79000000000002,1.3250000000000002,31.847184579676068,734.375,739.5751953125,0.4112552241309525,0.5033050488741616,0.4647736437563511,65.04844356974758,0.3353940270295738,65.94694837519019,0.18958333333333333,117,0.12759593333333333,0.001159736067196136,6.783638992957653e-08,35.08800000000001,0.014000000000000361,1.368055926664493e-05,80.49433333333333,0.2747809228377314,0.7800000000000011,-5.0937513817686434e-05
S053,10324.0,10353.984375,W,0.8396354166666669,70.16225786578859,-274.36,203.25,477.61,5.475,45.33550438520739,718.75,720.3206380208334,11.351057678325253,7.355963838482048,4.544026408182933,65.0414952080258,1.7304699085386466,81.02468759581859,0.04583333333333333,26,0.13407495,0.0037054923893458493,4.829537768429299e-06,35.12133333333335,0.013349989596334325,1.1180558588476717e-05,81.089,0.5757392349550838,2.1699999999999875,0.00102079888802053
S053,10354.0,10383.984375,N1,-0.7125260416666664,89.38967971299611,-182.41,165.5,347.90999999999997,7.735,48.69341701996016,781.25,764.8844401041666,0.4488411003165077,0.23265339921580053,0.4940224283595049,65.07039630121459,0.3815868658798567,66.34003316248794,0.153125,98,0.13601751666666667,0.0012517592219441526,5.255296564479379e-08,35.143,0.013453624047071684,1.5104170763932772e-05,83.22166666666665,0.414914315116855,1.3300000000000125,-0.00017100699083306116
S053,10384.0,10413.984375,W,-0.6475989583333327,89.46083354844686,-190.03,271.96,461.99,6.625,74.50537898339563,765.625,747.2900390625,0.6891898424156359,1.1680869331232728,1.2907775837971984,65.16717486980598,0.42786620353509197,69.29646455628166,0.08645833333333333,59,0.13686083333333335,0.0012771889205943237,6.058291573972265e-08,35.19266666666666,0.026068286394690086,4.173612243275975e-05,81.08500000000001,0.8257713565711361,2.8299999999999983,-0.0014323267774323952
S053,10414.0,10443.984375,N1,0.9504843749999999,92.75809468284945,-195.18,174.76,369.94,11.954999999999998,19.77709183354699,781.25,785.9537760416666,0.2885548282196797,0.39343572113709585,0.37638056058846725,65.05367507845337,0.3003200298813309,65.62011886609167,0.23958333333333334,115,0.13669004999999998,0.0010740981088801934,3.619493169350372e-07,35.23666666666667,0.012995725793079192,1.6388893334661643e-05,77.76333333333332,0.5818208964583141,1.9200000000000017,-0.0009061113569095476
S053,10444.0,10473.984375,N1,0.09814583333333295,96.44521435282346,-186.96,245.17,432.13,7.645,27.295071095904344,812.5,807.6904296875,0.4816049827140496,0.5139957424569671,0.3870965641800505,64.98690503377843,0.34774147101490555,66.34003316248794,0.14895833333333333,99,0.137020975,0.0010519615365473243,2.727129646031272e-07,35.26866666666667,0.013597385369580654,1.1250003051758967e-05,77.044,0.369879259578942,1.4000000000000057,-0.0005844446029851892
S053,10474.0,10503.984375,N2,-0.6482343749999995,93.63824331991079,-195.57,177.72,373.28999999999996,8.66,24.515846853857727,796.875,798.1770833333334,0.36985914877228,0.4394290309752974,0.2479057245484438,64.88361272607432,0.30809838169741677,65.75712889109438,0.2625,107,0.137341225,0.001220456461482752,2.4185553435750692e-08,35.29666666666667,0.018856180831640527,2.263889503008194e-05,75.13866666666667,0.22724045023327552,0.9799999999999898,-0.00032416675460252443
S053,10504.0,10533.984375,N2,0.3753124999999996,94.80794027711941,-192.76,171.36,364.12,9.115,21.359500373969095,812.5,804.58984375,0.31598061649411346,0.09636964965693294,0.3650532685634918,64.83032315800884,0.2832682382622532,65.75712889109438,0.16770833333333332,100,0.1373519,0.0012456403132525857,5.882371387362041e-07,35.31366666666667,0.014255603186894967,8.298613362253345e-06,74.58366666666667,0.14909691106420947,0.45000000000000284,-0.0001887847734333685
S053,10534.0,10563.984375,N2,-0.33553645833333356,93.89085288594258,-203.25,191.41,394.65999999999997,9.835,26.871679480396477,812.5,812.6871744791666,0.25654623798103576,0.13635890143294643,0.4983468765578852,65.02237606239684,0.35937844524597107,65.75712889109438,0.44583333333333336,167,0.1380778,0.001128928567270751,7.839455251588295e-07,35.335666666666675,0.01282792093659582,1.0243058334163017e-05,74.559,0.27702406634322113,0.7000000000000028,-0.0004519792892738951
S053,10564.0,10593.984375,N2,0.30075520833333325,93.94380988789297,-200.68,185.57,386.25,8.91,23.032006534117325,812.5,810.0504557291666,0.232399078305449,0.2992757461309256,0.4968608051780922,65.09066920520567,0.3529505420812746,65.75712889109438,0.0125,11,0.1383126416666667,0.0010325233314218826,-2.8464916575769505e-07,35.373666666666665,0.019745604292825267,1.6770837882711723e-05,74.38266666666667,0.13515258866267393,0.3499999999999943,0.00015444448634019097
S053,10594.0,10623.984375,N2,0.0460000000000002,92.3473243912847,-199.17,176.84,376.01,8.83,21.89771744171074,812.5,809.1552734375,0.19741988090108853,0.397909849418042,0.4459258081664358,65.12684623034802,0.33251579702197304,65.75712889109438,0.010416666666666666,9,0.13856885,0.0010587103133057618,6.755275269985654e-07,35.38666666666666,0.014681810363697295,1.1041669661911648e-05,73.96966666666667,0.1491192662118334,0.46999999999999886,1.9618060877293618e-05
S053,10624.0,10653.984375,N2,0.4236666666666667,93.6599953944304,-196.27,184.65,380.92,10.575,38.06839150230553,796.875,802.7669270833334,0.12478714516015751,0.4229525846816507,0.29720193985833193,65.19555721542935,0.29711563912446337,65.75712889109438,0.003125,3,0.13962560833333332,0.0013883920213435899,-3.616205408041821e-07,35.39933333333333,0.014360439485691155,8.750002373589497e-06,74.01066666666665,0.09423139368360857,0.27000000000001023,-0.00011388891978323209
S053,10654.0,10683.984375,N2,-0.7085677083333332,94.1680586968309,-203.62,194.03,397.65,8.965,42.73244828261341,796.875,806.6813151041666,0.2524532409950185,0.36431388852883445,0.4766407608782065,65.15494619903829,0.33798787023237126,65.79513659838392,0.01875,16,0.13967900833333333,0.0010950163811242928,-1.5508098824896474e-07,35.41266666666665,0.012364824660661133,8.33333559389511e-06,74.59200000000001,0.2124209656946955,0.730000000000004,0.0003798612141550618
S053,10684.0,10713.984375,N2,-0.2779427083333333,93.0632196445583,-194.18,181.05,375.23,8.89,35.35028856954936,812.5,807.0638020833334,0.13303596396588907,0.46308966726818207,0.39964040911452164,65.09908517098741,0.33189089652010156,66.49060083951716,0.0125,9,0.139220025,0.0010691533446493926,9.424025993930606e-08,35.431333333333335,0.01454494948618188,1.1527780904888904e-05,74.18966666666668,0.28873844373219243,0.9299999999999926,-0.00035218759553699906
S053,10714.0,10743.984375,N2,1.0702812500000003,94.6736157638225,-196.49,184.26,380.75,10.67,38.18177253822252,812.5,822.705078125,0.2108982731015648,0.3903123748998999,0.39197129111142254,65.15892092802687,0.31856212655286276,65.75712889109438,0.005208333333333333,5,0.13903855,0.0010951114087160182,4.097644340723802e-07,35.45,0.01154700538379227,5.555557062596172e-06,74.042,0.2914835615719462,0.8699999999999903,-0.00046729179342767783
S053,10744.0,10773.984375,N2,-0.7766458333333337,94.59873345533613,-199.85,187.16,387.01,7.225,28.815558502205484,812.5,802.490234375,0.2084999333866134,0.44987942057350827,0.3472345483923255,65.15344108567332,0.3111639905717688,65.75712889109438,0.011458333333333333,7,0.14061820833333333,0.0011943312486899177,4.387870113897071e-08,35.464000000000006,0.0147422295916634,1.1458336441605443e-05,74.05099999999999,0.3676171015245805,1.0699999999999932,0.0005878821039176727
S053,10774.0,10803.984375,N2,0.22996354166666677,90.23587072367113,-197.57,183.03,380.6,7.885,34.06276407246395,781.25,788.4195963541666,0.2730498243859941,0.494759867399215,0.3569194489735122,65.12985170851057,0.31839403379163966,65.92419889539804,0.013541666666666667,11,0.14014859999999998,0.0014934836256216507,-1.302958686783495e-06,35.47466666666667,0.013349989596334193,6.319446158704717e-06,74.04133333333333,0.34374150494553646,1.2000000000000028,0.0004476390103187408
S053,10804.0,10833.984375,N2,0.09672395833333318,90.79471872975579,-197.86,177.84,375.70000000000005,8.489999999999998,45.84202539502054,828.125,810.15625,0.20408161493764093,0.4721359194012767,0.21566273824345883,65.18005884563715,0.2914255981863148,65.75712889109438,0.005208333333333333,5,0.140479425,0.0014523662225399603,1.4377731764792639e-06,35.49066666666668,0.01289271973720958,7.847224350918105e-06,75.48833333333332,0.27399614758037855,0.8499999999999943,-7.67014096954775e-05
S053,10834.0,10863.984375,N2,0.5810104166666664,92.57181545247214,-194.84,182.18,377.02,10.115,26.847417067533193,796.875,800.7242838541666,0.13615185047912087,0.41962362227953753,0.2382640305708961,65.22513835184411,0.28150248570929204,65.75712889109438,0.005208333333333333,4,0.14090638333333333,0.0013979793285508768,9.023635260317741e-07,35.50933333333333,0.0161107279647929,1.2013892147866154e-05,75.03533333333331,0.09054403471362403,0.4000000000000057,-8.930557978124393e-05
S053,10864.0,10893.984375,N2,-1.117296875,90.8810884688716,-192.07,178.23,370.29999999999995,7.4350000000000005,25.53442768112291,796.875,802.3111979166666,0.11632669960790028,0.32953401179628716,0.24944382578492943,65.27990183664502,0.2479909904057725,65.75712889109438,0.003125,3,0.1411198333333333,0.0011532726067827847,7.414021108404152e-08,35.52866666666667,0.016478942792410228,1.6388893334659494e-05,74.07933333333334,0.28765643087235576,0.9500000000000028,-0.00023361117448219797
S053,10894.0,10923.984375,N2,0.6824010416666659,90.67247103710466,-181.66,166.53,348.19,9.365,38.6450874894138,796.875,807.1858723958334,0.10172129679778087,0.285583892616902,0.29292696461272083,65.28097651815521,0.2527775756136239,65.75712889109438,0.0020833333333333333,2,0.14117316666666666,0.0013449760117646074,7.18130837166569e-07,35.54566666666666,0.016669999666732944,1.6909726809279577e-05,74.92266666666666,0.2051167689119747,0.75,0.00013520837001094864
S053,10924.0,10953.984375,N2,-0.504020833333334,90.02157043175578,-183.22,166.98,350.2,7.47,26.441829820833483,812.5,816.4143880208334,0.04564354645876384,0.3013838885273878,0.34437443284889774,65.24017194705362,0.2853465475687378,65.39877674696982,0.0,0,0.14225098333333333,0.001160776456969887,9.111795006454836e-07,35.56733333333333,0.015260697523015182,1.180555875802017e-05,74.316,0.17902699982590978,0.6000000000000085,-0.00030131952618259525
S053,10954.0,10983.984375,N2,0.47809375000000015,85.09842904635713,-174.12,161.86,335.98,9.865,16.709709218643837,796.875,800.146484375,0.08523227047636098,0.33653249956562725,0.36602542176056563,65.2092763159104,0.3015084662932984,65.75712889109438,0.0010416666666666667,1,0.14330761666666667,0.0012721174224060048,7.410488121334699e-07,35.580000000000005,0.015275252316520925,1.854167169641868e-05,73.96366666666667,0.044232969101738996,0.1799999999999926,-5.795140460921204e-05
S053,10984.0,11013.984375,N2,0.151828125,87.08274936890511,-176.36,163.37,339.73,8.775,32.362464490831485,781.25,793.212890625,0.07210109366946754,0.3580894882528978,0.3476343040826092,65.21021743522697,0.2983293209738639,65.75712889109438,0.0010416666666666667,1,0.14467395,0.0012247905320911013,3.491615530494658e-07,35.60933333333334,0.010934146311237434,2.986111921145809e-06,75.139,0.5935562315400293,1.6899999999999977,0.0010005905492053361
S053,11014.0,11043.984375,N2,-0.33148958333333334,84.37912506194077,-173.5,160.35,333.85,8.675,35.82842116730956,812.5,806.5999348958334,0.07198059875565235,0.35501736068661327,0.34327460814517324,65.2157963703321,0.29564130864549204,65.75712889109438,0.0020833333333333333,2,0.14517568333333333,0.0011751412183459297,1.5986549475518062e-07,35.61866666666666,0.011175369742827946,-1.736111582061617e-06,75.018,0.2665383024382549,0.8499999999999943,-0.000433055673029425
S053,11044.0,11073.984375,N2,0.2502760416666671,87.3683662436242,-171.16,155.48,326.64,10.54,21.860025215188674,828.125,818.8883463541666,0.09668440031302303,0.3569118486522034,0.34655421854146995,65.21047281560531,0.3001141425088427,65.39877674696982,0.0,0,0.145261075,0.001163477060098306,-2.204499295925381e-07,35.639333333333326,0.011234866364233528,1.0000002712673023e-05,74.411,0.4774679744932286,1.269999999999996,-0.0008414932838252178
S053,11074.0,11103.984375,N2,-0.24508854166666674,83.36072752709352,-170.91,156.86,327.77,8.535,34.500562247088496,812.5,812.6546223958334,0.06454972243679027,0.3799671038392666,0.34327460814517324,65.1983510734951,0.3010685923158844,65.75712889109438,0.0010416666666666667,1,0.14565604999999995,0.0012829555906187823,7.73381720209882e-07,35.64133333333333,0.012310790208411682,3.4722231641198787e-07,74.14433333333334,0.21373945717989457,0.6200000000000045,0.0002776736864349208
S053,11104.0,11133.984375,N2,-0.041145833333333215,82.9411926654687,-165.58,149.26,314.84000000000003,9.615,28.82253880466224,812.5,810.9130859375,0.03225804701500421,0.3476343040826092,0.32471775939096537,65.23066762097208,0.2861410880370977,65.39877674696982,0.0,0,0.14725729166666662,0.001191736320079744,6.910724530903973e-07,35.64799999999999,0.010132456102379317,-4.722223503207107e-06,73.44033333333333,0.2232260936559358,0.7199999999999989,-6.982640783051402e-05
S053,11134.0,11163.984375,N2,0.47983333333333344,85.51791315562521,-167.97,156.02,323.99,11.535,23.684899803917656,843.75,849.8779296875,0.032258047015004204,0.3388075878684275,0.3421680772011842,65.22405475822642,0.29185766373561056,65.39877674696982,0.0,0,0.14709717499999997,0.001096930920511854,-2.521413444393813e-07,35.65266666666665,0.00891939210683872,2.0138894351907885e-06,73.34566666666666,0.5341203568069239,1.539999999999992,-0.0009456599787489098
S053,11164.0,11193.984375,N2,-0.14914062500000055,83.82723692611921,-165.51,147.38,312.89,7.96,17.311005023992518,812.5,816.7236328125,0.0,0.3247177593909654,0.318518434404597,65.24609304560099,0.2784791161128758,65.39877674696982,0.0,0,0.1465314,0.0010768530261832312,-4.7147929456360854e-07,35.652333333333324,0.00760847480700737,-3.298612005916229e-06,72.62933333333334,0.15983185609327705,0.5400000000000063,9.597224825635892e-05
S053,11194.0,11223.984375,N2,-0.001651041666666586,81.57760226358792,-158.53,141.42,299.95,9.455,20.03093446406014,828.125,823.1770833333334,0.04559597630883184,0.2763853991962833,0.34546761536197407,65.25034269145644,0.2814906407491351,65.75712889109438,0.0010416666666666667,1,0.146179125,0.001198978819402154,-3.12188235728145e-07,35.65433333333332,0.008034647195461792,-1.631944887137774e-06,72.32,0.3447511179580619,1.0499999999999972,0.0005246529200989909
S053,11224.0,11253.984375,N2,0.15091666666666667,85.2545184567054,-163.66,142.91,306.57,8.43,19.494416154700986,843.75,841.4306640625,0.06451609403000842,0.2732186624299299,0.34327460814517324,65.25308656174428,0.2782130457758226,65.39877674696982,0.0,0,0.14819667499999997,0.0012873152758260116,4.403488607717167e-07,35.66099999999998,0.007000000000000535,1.7708338137035068e-06,72.78299999999999,0.3086762057561293,0.8700000000000045,-0.0005403820910324688
S053,11254.0,11283.984375,N2,-0.755411458333333,83.22420906138551,-164.12,144.02,308.14,7.695,18.52489377150206,843.75,837.6546223958334,0.0,0.3146988612370386,0.3497751633986546,65.23035028422943,0.2910929921208253,65.39877674696982,0.0,0,0.147737675,0.0009852857298139424,-1.0591604435656603e-07,35.66299999999999,0.009000000000000894,2.3958339832450603e-06,72.03766666666665,0.1569433726610429,0.519999999999996,-0.00026968757315744057
S053,11284.0,11313.984375,N2,-0.11389583333333336,82.76714002203198,-169.66,150.86,320.52,9.68,21.3509642518016,843.75,841.3330078125,0.055891993438734626,0.2870750936166354,0.3678956675774019,65.2313185860169,0.2994308983691222,66.1362230551458,0.0010416666666666667,1,0.14838883333333333,0.001287876134917053,8.973513718943602e-07,35.663666666666664,0.012242911781471716,7.118057486451772e-06,71.30166666666668,0.17684425036989085,0.5999999999999943,-0.0001837153276137485
S053,11314.0,11343.984375,N2,0.4993854166666668,82.08819239300774,-155.79,143.76,299.54999999999995,9.010000000000002,22.525236082280532,828.125,824.5279947916666,0.0,0.339934634239519,0.33071891388307384,65.23068559212398,0.2875016199431593,65.39877674696982,0.0,0,0.14868770833333336,0.0011286265871686236,3.3687075110436566e-09,35.68133333333333,0.016478942792412375,8.055557740766434e-06,71.93733333333334,0.25760348513860554,0.769999999999996,0.0004182640023502615
S053,11344.0,11373.984375,N2,0.025447916666666792,81.68605490118986,-168.2,155.04,323.24,9.684999999999999,15.04226584399083,812.5,822.5830078125,0.0,0.30948370705185035,0.3726779962499649,65.21525106713149,0.3013634312095187,65.39877674696982,0.0,0,0.14908260833333334,0.0013258357822887544,5.100376817593553e-07,35.69633333333333,0.01797838208021644,1.531250415378332e-05,72.66600000000001,0.3729575489694938,1.0,0.0006545140664371899
S053,11374.0,11403.984375,N2,-0.6228020833333332,81.27511279766598,-150.8,139.06,289.86,7.154999999999999,24.385350955796927,828.125,828.564453125,0.04559597630883186,0.36210317120569685,0.3295340117962872,65.21959581693072,0.2925260265200294,65.39877674696982,0.0,0,0.1500644416666667,0.0012260110643589498,2.5201374023810314e-07,35.72266666666666,0.012092238098143367,6.041668305574265e-06,72.56866666666666,0.310630899228579,0.8599999999999994,-0.0005080556933744829
S053,11404.0,11433.984375,N2,1.2030468749999998,81.47767937407951,-162.83,149.11,311.94000000000005,10.594999999999999,25.768402700432603,812.5,821.3216145833334,0.0,0.318518434404597,0.35083605501715465,65.22778964289269,0.2923325204987716,65.39877674696982,0.0,0,0.15093952500000002,0.0011089293031456096,-4.4934495696206664e-07,35.728,0.013012814197294838,2.2916672883209212e-06,72.72233333333334,0.16960116613855025,0.46999999999999886,-0.00015503476427809493
S053,11434.0,11463.984375,N2,-1.135015625,79.2482600689636,-155.76,143.61,299.37,6.525,28.199875615945082,812.5,820.3776041666666,0.0,0.3487079325484613,0.29292696461272083,65.2479500032665,0.2735178931999805,65.39877674696982,0.0,0,0.15059811666666664,0.0015568034674900036,1.008017200525503e-06,35.73799999999999,0.012220201853216399,6.250001695422592e-06,73.038,0.3062722100789858,0.8299999999999983,0.0005320140332069304
S053,11464.0,11493.984375,N2,0.25914062499999996,78.42933953593338,-154.72,148.04,302.76,9.35,35.87871571998259,812.5,817.1956380208334,0.03225804701500421,0.3630921887069453,0.29578748177534486,65.23766304694148,0.2803037169329713,65.39877674696982,0.0,0,0.15118498333333333,0.0011326091851953598,1.9454562569054574e-07,35.745333333333335,0.014313940369056992,6.875001864964244e-06,73.33933333333333,0.2509705604691964,0.7000000000000028,0.00033875009189184485
S053,11494.0,11523.984375,N2,0.5913125000000002,79.19846297202686,-154.17,136.21,290.38,8.47,21.569968141954643,812.5,814.892578125,0.045595976308831845,0.32953401179628716,0.31340840191176894,65.24748734949834,0.27722357473165177,65.75712889109438,0.0010416666666666667,1,0.15183595000000003,0.0010444173483335133,6.378916660947465e-07,35.75333333333333,0.009067647005825047,1.0416669492370735e-06,73.50266666666667,0.11882573608253257,0.3300000000000125,0.00010277780565804331
S053,11524.0,11553.984375,N2,-0.44881250000000017,78.42450779548982,-162.33,148.75,311.08000000000004,8.25,37.16849898624226,812.5,820.7438151041666,0.0,0.3630921887069453,0.26506476868347145,65.25324570776613,0.266863764057605,65.39877674696982,0.0,0,0.15150512500000002,0.0012933232810767028,3.4624423454976124e-07,35.755333333333326,0.010241527663826413,2.9166674578638067e-06,73.517,0.0723947511909518,0.29000000000000625,-8.857641291677864e-05
S053,11554.0,11583.984375,N2,0.4400156250000004,78.51971224867256,-150.23,137.2,287.42999999999995,9.795,19.936523371061753,828.125,826.9856770833334,0.0,0.3781752147557473,0.26999871398870695,65.24136421203629,0.2735185900389604,65.39877674696982,0.0,0,0.1524550666666667,0.0012203679140142792,6.513005238987983e-07,35.76333333333333,0.009428090415822108,6.6666684751172736e-06,73.11566666666666,0.22126429646214882,0.5800000000000125,-0.0003915626062181585
S053,11584.0,11613.984375,N2,-1.2132812500000003,78.66532276613415,-152.23,144.67,296.9,6.855,26.966626015511874,828.125,822.36328125,0.0,0.36985914877228,0.26999871398870695,65.24676366139006,0.27087521366070666,65.39877674696982,0.0,0,0.15275395833333333,0.0014273120856808314,1.0210326120422688e-06,35.773999999999994,0.009521904571389168,1.2500003390834772e-06,72.94466666666668,0.19309295401150345,0.5699999999999932,-0.00017972227097500762
S053,11614.0,11643.984375,N2,0.5256979166666668,79.96528420933411,-153.77,144.85,298.62,8.469999999999999,20.388883448931217,828.125,832.4300130208334,0.0,0.32834152908552733,0.29002327193501026,65.26026371454456,0.26821305231258386,65.39877674696982,0.0,0,0.15286068333333336,0.0010652859161068276,-2.337726328593305e-07,35.77266666666666,0.013399834161494118,2.9166674578620555e-06,72.652,0.11443775600735949,0.3199999999999932,-0.0001822222716531771
S053,11644.0,11673.984375,N2,0.7906249999999997,78.20876430083486,-152.45,132.93,285.38,9.37,22.22746614996612,828.125,826.0904947916666,0.03225804701500421,0.339934634239519,0.3013838885273878,65.24856204063052,0.2741379761903902,65.39877674696982,0.0,0,0.15366130000000003,0.0010318921261449798,3.335938404931224e-08,35.78600000000001,0.0158324561160501,1.9166671865959127e-05,72.27299999999998,0.18674670902945856,0.5699999999999932,-8.906252415975473e-05
S053,11674.0,11703.984375,N2,-0.1779270833333334,78.84712697864362,-150.75,134.13,284.88,8.225000000000001,17.219029031420792,828.125,827.587890625,0.0,0.3410547747430022,0.2914805954090255,65.2529103998716,0.2707569875897204,65.39877674696982,0.0,0,0.1541737,0.001363059980338355,-5.315261858523695e-07,35.790666666666674,0.012092238098144567,3.4027787008408853e-06,72.63566666666667,0.19326464296974338,0.5200000000000102,0.0002693403508410255
S053,11704.0,11733.984375,W,-0.15307812499999968,69.48041962079242,-144.81,140.37,285.18,9.74,45.17072150198355,718.75,739.1682942708334,0.4797448956795221,0.3675637109362433,0.45629161720390565,65.09616504540419,0.30400885101689884,66.70832032063167,0.10833333333333334,57,0.15449395,0.0013453888462076641,7.466942129704337e-07,35.800666666666665,0.011234866364236283,-3.3333342375588587e-06,73.81600000000002,1.1631812699088078,3.5800000000000125,0.002021042214909455
S053,11734.0,11763.984375,W,0.30090104166666687,74.5967013692811,-191.13,232.66,423.78999999999996,6.585000000000001,27.453157044113798,734.375,731.1686197916666,1.0923324146827587,1.291935455904134,1.1756185576348968,65.12287094881067,0.7480615290319278,71.45628033979938,0.06354166666666666,40,0.15442989999999998,0.001093653619753528,3.39709727568827e-07,35.80200000000001,0.01222020185321632,4.444445650077047e-06,78.758,1.4087427018444498,4.640000000000001,0.0025385423552903522
S053,11764.0,11793.984375,W,-0.060171874999999986,68.81632315387373,-137.52,136.81,274.33000000000004,6.12,36.23972337854162,718.75,733.2112630208334,0.4173120002534741,0.5393822018960417,0.5473807185512353,65.04465146470903,0.3138855967691626,65.88626564011653,0.203125,106,0.15507040000000002,0.0014103933458436287,2.8411075415330577e-07,35.80466666666666,0.011469767022724056,1.1111114125187062e-06,82.68533333333333,0.6990695403335923,2.319999999999993,0.0008102085531164682
S053,11794.0,11823.984375,W,-0.8705989583333331,68.09216799528048,-140.62,133.79,274.40999999999997,4.25,30.047349474325763,750.0,758.8053385416666,0.3950526841623645,0.26007477557212055,0.4720014547264541,65.08668496148458,0.3513413218751743,66.12866246946176,0.29270833333333335,125,0.15646882500000003,0.0011924983204914747,-2.7521491840683694e-08,35.82533333333333,0.011469767022723037,1.2638892317408202e-05,81.45766666666665,0.41256662761573804,1.2800000000000011,-0.0007171876945496146
S053,11824.0,11853.984375,W,0.5302343749999997,69.11077377868676,-140.67,139.77,280.44,5.734999999999999,37.987472320721736,765.625,759.5377604166666,0.28228782285205917,0.3781752147557473,0.4389806294764674,65.11424675124985,0.2785289045670632,66.12866246946176,0.10625,80,0.15672501666666666,0.0011312638432547687,-1.242756413508132e-07,35.857,0.018999999999998466,1.6840282345995747e-05,79.53666666666666,0.7623836887610387,2.2700000000000102,-0.0013327781393169854
S053,11854.0,11883.984375,N1,0.14307812500000003,71.8796570429972,-139.41,135.79,275.2,4.92,39.87500994398843,796.875,798.4537760416666,0.19648605760545285,0.24578919095210208,0.2304038573895845,65.1436015285507,0.16050926060250958,66.12866246946176,0.03125,27,0.1567784,0.0012529376241457474,1.2242893946097487e-06,35.870999999999995,0.01640121946685593,2.8819452262212753e-06,78.77066666666666,0.5309421395552953,1.6499999999999915,-0.0008508335641367072
S053,11884.0,11913.984375,W,0.19958854166666654,73.55657540775073,-152.4,142.77,295.17,5.735,34.2600393254211,765.625,764.6647135416666,0.24852865640717484,0.46985517863368165,0.39768072193308823,65.08086226806644,0.2523055917586778,66.12866246946176,0.0375,29,0.157835225,0.0009986118737402468,1.0285810081871246e-08,35.884,0.011718930554165412,2.9861119211456863e-06,77.29033333333334,0.15727859217183895,0.5699999999999932,-0.00016059032134069288
S053,11914.0,11943.984375,W,-0.5680729166666669,75.53830854299261,-144.72,144.43,289.15,3.315,18.754909014041438,828.125,820.7845052083334,0.3310714272336946,0.3992166265707825,0.478576402744524,65.08614341412606,0.30134776557425685,65.86349520030045,0.026041666666666668,24,0.15802737500000003,0.0012159663788012427,9.382326763869046e-07,35.89399999999999,0.013063945294842977,1.2777781243972405e-05,76.27633333333333,0.4907713882813013,1.5499999999999972,-0.0008662849572170564
S053,11944.0,11973.984375,W,0.29601041666666705,76.15757074165855,-146.57,145.46,292.03,5.275,39.8903169461927,796.875,796.875,0.49998263858747016,0.4568809849129202,0.458693040666147,65.05795604923414,0.30424172832597934,65.86349520030045,0.06979166666666667,55,0.15927626666666667,0.0011651273230376573,-2.384709848282844e-07,35.90666666666666,0.015563490039904392,8.958335763436714e-06,75.60333333333332,0.26550999144204684,0.980000000000004,-0.00033722231369963135
S053,11974.0,12003.984375,N1,0.160770833333333,75.45035758302154,-142.25,141.59,283.84000000000003,3.5949999999999998,21.448037600319143,812.5,819.775390625,0.4941838371806139,0.13287273960657078,0.21358993356949718,65.08456701009177,0.22631933679783126,65.86349520030045,0.007291666666666667,6,0.15993795833333332,0.0010958217190449198,4.585420080680374e-07,35.91066666666666,0.013148721948877168,7.152779718093044e-06,74.35533333333333,0.14945976790501853,0.5700000000000074,4.937501339382831e-05
S053,12004.0,12033.984375,W,-0.6324062499999994,76.2520061268989,-211.49,148.76,360.25,2.8049999999999997,34.03579796887674,796.875,802.0263671875,1.0173494974687902,1.4184792326055864,1.3392511900312056,65.06280755613001,0.9820418765646071,72.34638899074369,0.05416666666666667,31,0.16052486666666663,0.0013345638796584066,9.84628305291969e-07,35.923333333333325,0.013984117975603644,3.888889943818138e-06,74.02199999999999,0.24763413873427612,0.789999999999992,-0.0002810417429041201
S053,12034.0,12063.984375,N1,0.3749114583333334,79.1710862730759,-202.89,149.19,352.08,4.63,48.47194035158784,812.5,806.7220052083334,0.2892083903616137,0.35102621133138573,0.28999521068842193,65.15748754379791,0.24312269842363118,65.98484674529449,0.011458333333333333,11,0.16139995000000001,0.0010777101407614235,-5.077501377360416e-07,35.928,0.013012814197297457,9.09722469000378e-06,74.80900000000001,0.37648683022561924,1.1600000000000108,0.0004700348497273363
S053,12064.0,12093.984375,N1,0.24918749999999978,76.90982557695307,-155.14,155.74,310.88,4.605,38.4778293114919,796.875,806.3802083333334,0.4493629750361431,0.39439293848971935,0.23684119151870517,65.08280005300826,0.28681398178915896,65.98484674529449,0.030208333333333334,22,0.160983775,0.0011331494492673982,7.2055141073985465e-09,35.941333333333326,0.01606929439092664,1.6180559944814746e-05,74.84533333333333,0.1460532627350575,0.4899999999999949,-0.00011006947430269965
S053,12094.0,12123.984375,N1,-0.6043593750000001,81.00323588126238,-160.48,161.49,321.97,3.4050000000000002,29.182937034865947,828.125,822.4039713541666,0.49968631653323825,0.44703886855619157,0.5240691151937881,65.0196093119984,0.3436760806697258,65.98484674529449,0.22291666666666668,106,0.16156001666666667,0.0012475220504619933,8.271187139536465e-07,35.94266666666666,0.00963788819653548,1.7361115820617899e-06,74.05566666666667,0.26375093470082006,0.7000000000000028,-0.0004287153940742751
S053,12124.0,12153.984375,N2,0.13918229166666662,81.14558385824786,-160.59,186.76,347.35,3.4400000000000004,30.016829220763906,828.125,831.396484375,0.29462782549439476,0.4878637798692719,0.4150750852422835,64.93788593690526,0.3245690149775443,66.24198064671678,0.10104166666666667,71,0.161453325,0.001017060455123001,-3.6342088851478194e-07,35.946,0.010832051206181924,1.6666671187797133e-06,73.35366666666665,0.324360738821592,1.039999999999992,-0.0005751043226736987
S053,12154.0,12183.984375,N2,0.8222708333333331,78.38739024503016,-159.4,164.61,324.01,6.59,33.194567007550596,828.125,820.068359375,0.26807691876586465,0.49972214501883166,0.5296329556479029,64.9366139815418,0.3855705022832197,66.05300901548695,0.11979166666666667,94,0.16107980833333332,0.0011089145465712088,-4.822230040752521e-07,35.949333333333335,0.014126413400277843,1.0416669492368518e-06,72.10033333333334,0.32931730730237785,1.0499999999999972,-0.000265937572140181
S053,12184.0,12213.984375,N2,-0.3801406250000002,80.50674348586567,-158.66,158.65,317.31,4.29,24.516385779467086,843.75,833.6507161458334,0.07894706383956841,0.48732190479075416,0.47889031886226296,65.01881239616179,0.3127052809228233,65.64297372910524,0.12083333333333333,82,0.16175214166666665,0.0011828691903998636,3.000673557040353e-08,35.958,0.011075498483889161,2.7777785312983454e-06,72.40833333333333,0.14980172080305215,0.4000000000000057,-0.0002256597834363562
S053,12214.0,12243.984375,N2,0.015744791666666855,80.34820523280396,-167.69,165.12,332.81,6.3,30.838336023238725,828.125,835.3190104166666,0.03225804701500421,0.39197129111142254,0.39197129111142254,65.02717432577089,0.3177643872482945,65.64297372910524,0.11354166666666667,81,0.162541925,0.0010113080734252074,-2.663401330132741e-07,35.95866666666667,0.01431394036905502,-2.013889435190862e-06,72.67933333333332,0.16180097513783745,0.5699999999999932,-8.673613463979308e-05
S053,12244.0,12273.984375,N2,-0.7358385416666667,79.95820965201247,-180.69,160.14,340.83,4.225,38.19062714815288,828.125,823.6897786458334,0.4760940890173099,0.356485972043626,0.4695583308191503,65.01086747849166,0.31395545436847094,67.43144666993287,0.10208333333333333,69,0.16277679166666664,0.001484472324294806,-5.431744094982669e-07,35.966000000000015,0.010832051206180436,7.500002034505402e-06,71.83466666666666,0.16220837079372763,0.5900000000000034,-6.541668441207818e-05
S053,12274.0,12303.984375,N2,-0.600145833333334,76.74320582088184,-163.66,161.21,324.87,5.575,34.671818813442535,828.125,832.8694661458334,0.47103494024388,0.03225804701500421,0.22476598555806637,65.13053584114245,0.2035338931445146,65.79513659838392,0.2916666666666667,147,0.16364142499999998,0.0012152164187398842,7.892274276333035e-07,35.97233333333334,0.014533486237727624,4.618056808284176e-06,72.31366666666665,0.08134221263007098,0.3200000000000074,7.0486130231684825e-06
S053,12304.0,12333.984375,N2,1.3776979166666667,75.84221095617694,-153.19,164.51,317.7,6.955,23.15992656149281,796.875,803.466796875,0.4990866223384697,0.13667682889047272,0.3410547747430022,65.12266582740835,0.25588838393352037,65.98484674529449,0.353125,169,0.16332117500000004,0.0012039109578266133,-4.967768274676684e-07,35.97066666666668,0.010934146311237736,3.125000847710876e-06,73.21166666666667,0.47855395608947765,1.3800000000000097,0.000812187720320021
S053,12334.0,12363.984375,N2,-0.32916666666666655,75.18334779635751,-162.71,144.18,306.89,3.415,30.23655329657273,828.125,838.4602864583334,0.4995212551783959,0.09668440031302304,0.4068625190098002,65.08393013455812,0.2845989692344608,65.64297372910524,0.33958333333333335,184,0.16381222499999998,0.001178657297256071,-5.40144026731775e-07,35.98300000000001,0.01100000000000117,-3.99305663874203e-06,73.38333333333334,0.07440131420583675,0.3399999999999892,-9.145835814300026e-05
S053,12364.0,12393.984375,N2,0.2502968749999998,74.95664909608719,-152.05,145.48,297.53,6.115,15.577923534386796,812.5,818.4407552083334,0.49607837082461076,0.05589199343873463,0.3487079325484613,65.14374974068231,0.264565158991716,65.39877674696982,0.0,0,0.1636094,0.001081077652160099,4.058725059332944e-07,35.98533333333333,0.0105619863451709,-1.3888892656489137e-06,72.903,0.24607790094466775,0.7000000000000028,-0.0004354515070126719
S053,12394.0,12423.984375,N2,0.23345833333333352,75.50224024006903,-152.35,139.54,291.89,6.97,34.21059703422767,812.5,819.0836588541666,0.495674650728681,0.09681898021852718,0.38436088501635485,65.11667264898725,0.287201656161046,65.98484674529449,0.0020833333333333333,2,0.16449542500000003,0.0012773921067452164,8.676219801491884e-07,35.987,0.009000000000000894,-3.854167712177038e-06,72.594,0.2522776248500842,0.7900000000000063,0.0003643750988430704
S053,12424.0,12453.984375,N2,-0.09566145833333337,73.76716265964241,-150.45,141.6,292.04999999999995,5.985,22.167084424664214,828.125,829.6223958333334,0.48042294553572507,0.11172573064826605,0.39999999999999997,65.13049745937111,0.28608104012553176,65.39877674696982,0.0,0,0.16556291666666667,0.0013073246892243498,-6.589107690187533e-08,35.986000000000004,0.011430952132988625,-9.722224859542323e-07,73.22733333333332,0.04501357819838504,0.20000000000000284,-3.20138975732128e-05
S053,12454.0,12483.984375,N2,-0.8899739583333333,72.79480057160497,-142.29,135.34,277.63,4.555,17.691503268694348,828.125,826.0904947916666,0.4496092053105675,0.15136818156035597,0.43420885111762625,65.11897878932977,0.30932954619809927,65.39877674696982,0.0,0,0.16563765,0.0011091730827512858,-3.363737891638962e-07,35.98233333333334,0.014533486237728585,1.0763891808783716e-06,72.85266666666666,0.1317809630493816,0.46999999999999886,-0.00020659727826532247
S053,12484.0,12513.984375,N2,0.1278333333333336,71.68509276104567,-133.13,127.51,260.64,6.23,18.793324467175502,812.5,810.9700520833334,0.3745309566644659,0.10703853634971328,0.4287201864431962,65.16273015706447,0.3159880972449181,65.98484674529449,0.0010416666666666667,1,0.16587248333333332,0.0012264032030245532,-1.054948202839829e-08,35.99100000000001,0.005385164807134356,1.5625004238555738e-06,72.62366666666667,0.13387763899256055,0.5,0.00017420143614405424
S053,12514.0,12543.984375,N2,0.050197916666667196,73.76550953981923,-146.3,141.64,287.94,5.5,29.714881806571892,812.5,809.9283854166666,0.4797448956795221,0.1286785130556855,0.35896111432468875,65.17159535869332,0.2788220509125888,65.46754921333164,0.0010416666666666667,1,0.16610735,0.0009205292105631421,2.2239589366208852e-08,35.99366666666667,0.012775845264491322,5.3125014411080035e-06,73.882,0.3870521067418872,1.2199999999999989,0.0006662501807319282
