participant_id,window_start_time,window_end_time,sleep_stage,BVP_mean,BVP_std,BVP_min,BVP_max,BVP_range,BVP_median,SDNN,median_nni,IBI_mean,x_std,y_std,z_std,mag_mean,mag_std,mag_max,movement_density,burst_count,EDA_mean,EDA_std,EDA_trend,TEMP_mean,TEMP_std,TEMP_slope,HR_mean,HR_std,HR_range,HR_trend
S059,6551.0,6580.984375,W,-0.062291666666666794,38.714259826515224,-237.41,162.64,400.04999999999995,-0.515,41.36844724746819,812.5,809.0169270833334,8.093426835568994,3.0907455950519984,8.37159730834299,62.83881838110039,2.155561674772127,90.47651629014017,0.020833333333333332,7,0.12075379166666668,0.0024298849557672243,-1.2275956021038401e-06,36.25866666666668,0.024594488994262784,3.979167746085134e-05,74.91566666666668,0.27395478134579526,0.8100000000000023,0.0002653820164339253
S059,6581.0,6610.984375,W,0.1949583333333332,115.88116241748453,-750.32,415.08,1165.4,2.3499999999999996,16.91087582635194,843.75,840.4052734375,18.88652698864215,9.136928502324903,8.700402027648398,63.36262131471572,2.9591122195572215,94.2019108086455,0.0375,11,0.12606941666666666,0.005077121181639801,6.351095038817009e-06,36.312333333333335,0.02859875677173499,4.413195641600373e-05,74.13966666666668,0.33474849597205647,0.9799999999999898,-0.00028336813242407945
S059,6611.0,6640.984375,W,-0.13994791666666676,13.039989754972483,-24.94,25.11,50.05,-0.025,35.38066211972674,859.375,855.4280598958334,0.49759730867160273,0.2892083903616137,0.3366872286418889,63.51801669420981,0.2643644594435823,64.45153217728807,0.065625,53,0.13134237499999998,0.0010441350412542418,9.030709915014679e-08,36.40033333333333,0.021367160680715976,2.6840285058671038e-05,73.809,0.6050308532077783,1.8199999999999932,-0.001074757235991002
S059,6641.0,6670.984375,W,-0.10533333333333332,13.006526270225095,-25.85,24.66,50.510000000000005,0.43,24.451772092444116,828.125,828.0924479166666,0.1735524206351883,0.2068462551362458,0.3603007400268405,63.55253304677358,0.24048909625319712,64.20280367709809,0.015625,15,0.1318758833333333,0.0009695388352487784,2.509180368158738e-07,36.43,0.017126976771555075,1.5694448701837197e-05,72.406,0.3637270038549972,1.5700000000000074,-0.000463819570263556
S059,6671.0,6700.984375,W,-0.00880729166666656,141.40539844378713,-1094.13,893.43,1987.56,1.38,21.81615635231578,812.5,817.919921875,20.560723681085026,19.740269859433635,9.929542586253518,63.287309079205805,4.443845127034972,141.62626874983326,0.030208333333333334,8,0.129783925,0.0035432962223577906,-3.9135620425244195e-06,36.45933333333334,0.014360439485691111,-6.944446328243713e-07,71.55566666666667,0.31758131067317197,1.1500000000000057,0.000565451542277439
S059,6701.0,6730.984375,W,-0.1421249999999998,62.75773308894723,-124.82,114.59,239.41,5.0649999999999995,34.96546843214858,828.125,832.8450520833334,0.27856745392972393,0.496208497774765,0.9190540643857079,62.374481323762,0.275976312389911,63.103090257134,0.0375,22,0.12803361666666666,0.0015636025719649985,2.2531256111994406e-06,36.404666666666664,0.019275776393067993,-2.9027785652068317e-05,73.49233333333333,0.3526630434596485,1.4299999999999926,0.00024065978750536588
S059,6731.0,6760.984375,W,0.3992239583333334,65.97630249892009,-142.5,147.85,290.35,4.875,37.19935433928093,843.75,842.8466796875,0.35501736068661327,0.16532992583014125,0.7519585249625732,62.236200274704984,0.28715622950994163,63.221831672294975,0.14791666666666667,67,0.13111826666666665,0.0010446318389216757,9.281256857979797e-07,36.352000000000004,0.019899748742131365,-2.611111819420539e-05,72.91233333333334,0.17471278017236244,0.6800000000000068,-0.00029565980242507954
S059,6761.0,6790.984375,W,-0.2074895833333335,59.22755943929573,-322.23,164.66,486.89,5.2,37.05568858343137,812.5,822.1761067708334,2.0732411806289095,0.7659749766999935,4.224850912680234,62.350716054008686,0.933563541339031,73.16419889536138,0.021875,10,0.10503108333333334,0.014320542575023317,-2.216286234886674e-05,36.30866666666667,0.016275407487644437,-2.152778361756153e-05,71.35033333333334,0.38534385798775733,1.5,-0.0003589237084753992
S059,6791.0,6820.984375,W,0.15687500000000007,43.728451294668645,-92.28,86.51,178.79000000000002,2.7350000000000003,37.44935660319573,843.75,847.5179036458334,0.47860020865250597,0.07880950133074056,0.6430720540240158,62.39818960090363,0.3435372803869019,63.631753079732135,0.016666666666666666,15,0.095691375,0.0011385276607860718,2.0488221703619146e-07,36.30533333333333,0.013349989596334192,9.375002543132579e-06,71.35633333333334,0.09631487712475063,0.3500000000000085,-0.00011406253094144266
S059,6821.0,6850.984375,W,-0.28025520833333345,39.44778259488889,-90.28,78.03,168.31,2.785,29.782149922278208,812.5,808.8541666666666,0.5193102730759543,0.47857640274452407,0.7703651449781604,62.425430906731165,0.3520077304080446,63.26136261573884,0.25625,125,0.0986376,0.0019319506955406502,2.5965345585217467e-06,36.343,0.016763054614239475,2.0868061216379002e-05,71.652,0.28653562896551954,1.0,0.00048743068777959035
S059,6851.0,6880.984375,W,-0.1718749999999999,73.40927293211584,-309.89,257.81,567.7,5.35,26.210790141980524,812.5,796.240234375,12.887091434883267,1.6801198571456146,10.369441072677072,63.179289288400945,1.1163131337334178,73.35529974037323,0.015625,6,0.12006004999999999,0.00899320128379396,1.5594153535740426e-05,36.417333333333325,0.03161574853701303,5.243056977825994e-05,73.23066666666666,0.706696225796881,2.5999999999999943,0.001243055892756048
S059,6881.0,6910.984375,W,-0.29198958333333264,89.39332356979496,-323.04,344.29,667.33,6.755,39.527766225412066,812.5,804.9235026041666,17.276183328984057,2.0553324003775315,18.508607906140966,62.419857633786755,0.9868500280145864,70.58328414008518,0.075,26,0.12951713333333334,0.004459103385086386,4.5934200828504945e-06,36.449333333333335,0.025551690528982977,-3.8263899268636644e-05,75.28133333333335,0.16970038957592867,0.6499999999999915,0.00019590283091982144
S059,6911.0,6940.984375,W,3.295151041666668,145.6105631841678,-824.43,735.66,1560.09,7.890000000000001,24.549618247267336,765.625,782.1451822916666,13.643851478219858,1.5928660402627153,17.180250712371183,62.54706252770599,1.124245297330396,72.9520390393579,0.022916666666666665,10,0.12203461666666666,0.008878693429763313,5.63416081655838e-06,36.35966666666666,0.025230052626886715,-2.6840285058669537e-05,74.333,0.5530650956261848,2.049999999999997,-0.0009748960977908266
S059,6941.0,6970.984375,W,-3.883869791666666,170.55787650528913,-506.12,514.72,1020.84,-8.785,0.0,765.625,765.625,0.5662596194301889,0.1572330188676101,0.30505008696205205,62.88004193088413,0.2981080960322553,63.788713735268246,0.023958333333333335,19,0.13735185833333335,0.0025336538907798517,4.232087302541039e-06,36.41799999999999,0.02663331247391793,4.194445582260717e-05,72.21000000000001,0.31490739379485283,1.1499999999999915,-0.0005381251459757877
S059,6971.0,7000.984375,W,-0.051510416666666954,154.3200001694595,-607.27,493.36,1100.63,13.275,0.0,765.625,765.625,0.5759192154359267,0.47495887979908324,0.3430801554382817,62.89413011094404,0.3100095498129942,64.01562309311689,0.18854166666666666,108,0.14348913333333335,0.0014646748383932305,1.8191923337652874e-06,36.49033333333333,0.01642829537380236,1.6631948956148775e-05,72.34666666666665,0.5242984730941801,1.8100000000000023,0.0009082641352713034
S059,7001.0,7030.984375,W,0.8263437500000014,136.99117839248265,-667.83,966.86,1634.69,-0.27,8.191195901904596,765.625,770.8577473958334,13.790454653126218,2.1654634078721657,21.383416933415106,62.59701484100701,2.353893865084097,88.34591105421914,0.03229166666666667,10,0.1405113833333333,0.0040151902179584075,-1.137317148794806e-06,36.532,0.014696938456697855,-1.3194448023666766e-05,74.86866666666668,0.6442604718245214,2.3799999999999955,0.001144861421674647
S059,7031.0,7060.984375,W,0.8351093749999999,77.7158456821529,-151.25,137.96,289.21000000000004,10.885,47.6243515126245,828.125,842.5618489583334,0.0,0.4141054092022411,0.5954690028316616,62.41929801403568,0.05577127398113115,62.5939294181153,0.165625,73,0.14349980833333334,0.0013221084883361753,1.5298148681138466e-06,36.47866666666667,0.025130769099960554,-3.9166677291306776e-05,75.861,0.6355435993436378,2.069999999999993,-0.0010320488910722906
S059,7061.0,7090.984375,W,-1.0431354166666666,78.76310152498966,-184.08,135.71,319.79,9.145,25.916547930364725,796.875,802.8076171875,0.08523227047636099,0.4552345530206257,0.68068274038318,62.485891188954454,0.10639073649215243,63.45864795282043,0.16458333333333333,33,0.14553862499999998,0.001122398963994084,1.2295712970842254e-06,36.42399999999999,0.018726095873586254,-1.840278276985497e-05,73.527,0.3896421435111948,1.25,-0.0006365626726786726
S059,7091.0,7120.984375,W,0.4825312499999996,67.59163777058106,-248.81,190.85,439.65999999999997,7.055,33.54732548620922,781.25,771.5738932291666,0.32125074308171736,0.24630736429983846,0.7898272215684614,62.5573567918805,0.30452621128839563,65.3834841531101,0.00625,5,0.13990310833333333,0.002606483067263346,-2.6058798301540306e-06,36.422666666666665,0.012092238098146593,4.375001186795711e-06,74.11966666666667,1.0710321605296864,3.0,0.0018230213278595182
S059,7121.0,7150.984375,W,0.6525781249999997,72.9176588820764,-258.19,159.44,417.63,8.495000000000001,48.56242542323853,781.25,778.4993489583334,0.11987768650679835,0.13928372696486196,0.5474362199659021,62.547562835156334,0.12199746788609549,62.71363488110062,0.013541666666666667,10,0.13940149999999998,0.0009968415370559074,6.499519992274246e-07,36.434666666666665,0.011175369742828553,6.180557232139972e-06,77.15533333333333,0.43162277769161145,1.4200000000000017,0.0007479863140153851
S059,7151.0,7180.984375,W,-0.07895312500000032,73.90946526619783,-288.59,213.08,501.66999999999996,3.33,20.571459947993976,765.625,769.7672526041666,0.19538956812822256,0.32196600655193397,0.6306334654205511,62.51409609982381,0.18895896025451886,62.71363488110062,0.03229166666666667,21,0.14329725,0.0032341707315528883,3.2531940248464764e-06,36.462,0.012220201853214383,1.0416669492367828e-05,77.72166666666666,0.16964832906797442,0.6500000000000057,-6.22569613327283e-05
S059,7181.0,7210.984375,W,-0.16474999999999979,69.45091509731292,-162.49,148.41,310.9,3.01,25.48617650253772,781.25,778.271484375,0.1439611975113047,0.15810015724920143,0.6085295060407688,62.478284847202744,0.1491840645922309,63.631753079732135,0.014583333333333334,9,0.145175675,0.001317789728816778,1.1678564365929989e-06,36.478,0.014922019523733133,1.64583377979431e-05,78.088,0.08146164741766554,0.25,-8.986113548750632e-05
S059,7211.0,7240.984375,W,-0.8987656249999998,87.40337472262385,-271.06,436.18,707.24,2.57,33.50050254305661,796.875,789.0787760416666,1.4526541202418266,1.0995500973883212,2.932499992599697,62.47895123576392,1.3175207066176338,87.57853618324526,0.01875,9,0.14748139166666668,0.00315172546207056,3.2780588319386983e-06,36.49033333333333,0.012775845264491657,7.673613192712631e-06,78.118,0.1348678365413089,0.6799999999999926,-3.576389859046791e-05
S059,7241.0,7270.984375,W,-0.1830937499999994,94.99991485364365,-193.56,144.29,337.85,12.065,29.840443479567988,859.375,857.8125,0.3790736493047521,0.499816589624523,0.5655386674445877,62.23064075720687,0.35715442149841053,63.15853069855251,0.17395833333333333,120,0.147299975,0.0014883229570140293,-2.049859280018242e-06,36.45,0.023664319132399362,-3.5416676274056565e-05,75.87166666666667,0.94896464048398,3.4399999999999977,-0.0017018407394316245
S059,7271.0,7300.984375,W,1.1818177083333334,94.40344342114251,-194.69,156.02,350.71000000000004,12.69,46.94275656731198,843.75,852.5716145833334,0.46137132362543826,0.41528416475950536,0.5991304100643606,62.28478408524454,0.432344138930028,63.15853069855251,0.30416666666666664,164,0.14449247499999998,0.0009398244779611801,2.0432622730203708e-07,36.385,0.026551836094702814,-4.2673622687071105e-05,71.96233333333333,1.1356281179251524,3.6500000000000057,-0.0020444102768040037
S059,7301.0,7330.984375,W,-0.5603854166666664,93.04178048707806,-193.16,165.94,359.1,9.805,32.89208826478328,812.5,822.55859375,0.428093317968044,0.21794494717703367,0.5882964090750135,62.22691094455913,0.39803178002245654,63.15853069855251,0.24166666666666667,133,0.1462752,0.0012873890670655795,1.5562152659003999e-06,36.321000000000005,0.014224392195567696,-1.5104170763935439e-05,70.36900000000001,0.307119412172747,1.0500000000000114,0.00047968763012359823
S059,7331.0,7360.984375,W,0.36989062500000025,96.20210331065681,-224.41,171.9,396.31,9.7,32.31495663396091,812.5,813.6067708333334,0.45915527625013014,0.05581428468591172,0.5939473356283367,62.25867099624223,0.4300803587709209,63.03967004989794,0.29791666666666666,165,0.14874111666666667,0.000943675360698209,4.461646175576777e-07,36.28066666666667,0.016110727964792185,-2.402778429572984e-05,72.421,0.6108155750033445,1.9200000000000017,0.001081562793392684
S059,7361.0,7390.984375,W,-0.5962343749999992,98.92926754356107,-204.0,156.81,360.81,12.17,42.87363950932943,812.5,808.4309895833334,0.4859472690157739,0.07894706383956838,0.6156584875268828,62.33958512896432,0.4530922811937272,63.03967004989794,0.32083333333333336,166,0.15070475,0.0010256558816191745,6.983456755495018e-07,36.24533333333333,0.019102065042527542,-2.4930562318405994e-05,73.82133333333333,0.31721426337554276,1.0699999999999932,0.000565347375582511
S059,7391.0,7420.984375,W,0.12401041666666639,106.07677051835645,-297.01,238.97,535.98,10.765,31.61382180919733,796.875,810.0260416666666,0.6296493733287863,0.7925406360069005,1.0352112472287427,62.30927079541604,0.5724417963255496,67.26812023536856,0.284375,166,0.14664850000000001,0.009038864279690601,-1.1799265787561251e-05,36.221999999999994,0.012220201853214227,-1.583333762839918e-05,74.13100000000001,0.07938723658960231,0.3299999999999983,1.0659725113856713e-05
S059,7421.0,7450.984375,W,-0.14777604166666666,88.05831832987307,-266.58,181.98,448.55999999999995,9.254999999999999,45.225932567487774,828.125,831.5348307291666,0.25179692751964494,0.15612494995995996,0.7938832729322786,62.21699942757638,0.23975451812456264,63.25345840347388,0.06875,39,0.13480057499999998,0.0014975088461758798,2.1019191899737455e-06,36.178,0.01720465053408665,-1.2847225707256012e-05,73.86899999999999,0.29935875912801746,0.9699999999999989,-0.000538090423744146
S059,7451.0,7480.984375,W,-0.2738854166666666,92.72241234148501,-255.14,163.09,418.23,10.98,34.15490696283021,812.5,814.7216796875,0.302757867592056,0.3,0.7788435158760855,62.20580169837585,0.27895948751252925,63.34824385884742,0.10208333333333333,60,0.13940148333333333,0.0012738271467205452,1.5278107443062893e-06,36.17166666666666,0.01213351648213572,-1.1458336441607442e-06,72.93699999999998,0.18199175805513673,0.6799999999999926,-0.00031059036203080406
S059,7481.0,7510.984375,W,0.09371354166666647,100.629642112443,-246.05,293.99,540.04,10.879999999999999,37.19611398499787,796.875,805.5094401041666,0.532648282366829,0.5241715934453145,0.7759339970051148,62.261043680947616,0.47537503699730815,66.43794096749237,0.20729166666666668,110,0.1401806,0.0014490057246263693,-9.740501774224663e-07,36.18,0.014142135623732156,3.958334407100757e-06,73.27400000000002,0.34266212707758137,1.0300000000000011,0.0006031946080714525
S059,7511.0,7540.984375,W,0.8221562499999997,97.38648175213498,-260.38,400.9,661.28,11.695,40.02194832276768,828.125,826.2288411458334,0.7089389261718295,0.5353964003946567,2.8271255523745116,62.34691208776952,0.6132656737543593,70.60453243241541,0.04479166666666667,32,0.14208021666666665,0.0010986242395479128,1.1379512635501507e-06,36.172999999999995,0.011874342087039405,-3.993056638741759e-06,73.85866666666668,0.06026238922873678,0.21999999999999886,3.4375009324819476e-05
S059,7541.0,7570.984375,W,0.14095312500000054,99.85325323045883,-211.67,199.08,410.75,12.795,40.672704613209405,828.125,827.9296875,0.1440968038815882,0.12011279421166313,0.7332615672743708,62.291002996991935,0.13959690329121227,64.15605972938177,0.008333333333333333,5,0.1443964,0.001154480398274483,1.2298492919513093e-06,36.155666666666654,0.014302291968615391,-1.774306036866736e-05,72.93900000000001,0.3983913486343134,1.2600000000000051,-0.0006846182412701405
S059,7571.0,7600.984375,W,-0.14202083333333348,97.03999710321116,-209.35,207.49,416.84000000000003,8.24,43.76160528270861,796.875,810.8968098958334,0.10152910775842672,0.46351240544347894,0.6824236513563665,62.24526634157207,0.10579729087126219,63.26926584053272,0.010416666666666666,10,0.14591225833333332,0.0011286896273690762,5.954430868714945e-07,36.116666666666674,0.013984117975602287,-1.1805558758018147e-05,72.94399999999999,0.22610616975217646,0.7999999999999972,0.00040131955330934097
S059,7601.0,7630.984375,W,0.39833333333333376,101.47108344372329,-218.62,182.08,400.70000000000005,12.344999999999999,42.77769829108269,812.5,805.0130208333334,0.13238185901860655,0.32272171534552113,1.0906085839261186,62.253464235333446,0.13284966463326348,63.26926584053272,0.017708333333333333,14,0.14954145833333332,0.0015265667629020467,2.2089726044305084e-06,36.11000000000001,0.012649110640673249,2.777778531298367e-07,74.36,0.5259404275517646,1.6499999999999915,0.0009413196997937544
S059,7631.0,7660.984375,W,-0.6961406250000003,109.63967926021266,-282.67,383.36,666.03,7.785,40.950837005219476,843.75,821.0042317708334,0.1366768288904727,0.242685978941924,0.7456791041653835,62.248908330519136,0.13491969942261683,63.26926584053272,0.014583333333333334,8,0.1508648166666667,0.0014239819754438255,3.962787533308258e-07,36.09866666666668,0.011175369742825248,-1.034722502908501e-05,74.99666666666667,0.22755707464770747,0.730000000000004,-0.00035333342918115947
S059,7661.0,7690.984375,W,-0.029005208333333067,103.46000608779933,-202.91,248.43,451.34000000000003,5.5,34.50250579039111,812.5,810.6770833333334,0.1767275838370708,0.45780153807505813,1.1291570571546823,62.31936962099171,0.1747713998774879,64.22616289332565,0.014583333333333334,11,0.15318092500000002,0.0010393196665968597,1.1278251757338295e-06,36.09266666666668,0.01339983416149386,7.222224181376428e-06,74.02766666666666,0.35236991295448994,1.25,-0.0006135071108688974
S059,7691.0,7720.984375,W,-0.37107291666666753,86.41680780823553,-163.78,173.92,337.7,8.215,37.55895342792105,812.5,810.9456380208334,0.11110243021644486,0.36098672403643267,0.811483739439676,62.3007773392554,0.11464259470961169,63.39558344238185,0.0125,10,0.15483555000000002,0.0010740981088801847,8.856916465092301e-07,36.083333333333336,0.0173845397472076,-2.083333898473906e-05,72.43933333333332,0.21620874686797995,0.9099999999999966,-0.00014541670611347094
S059,7721.0,7750.984375,W,0.6439218749999996,80.05192774773954,-182.02,175.72,357.74,9.96,46.690829129831656,828.125,830.126953125,0.20644719108850412,0.4377181995556298,0.9546572383365317,62.34495655618334,0.2095041947337685,64.31174076325411,0.01875,11,0.15653287500000002,0.0010313950549498436,6.557898914360584e-07,36.04366666666667,0.0205723654989455,-2.3090284041418486e-05,72.545,0.08341662504161321,0.269999999999996,-7.906252144708025e-05
S059,7751.0,7780.984375,W,-0.3448541666666671,88.244564977111,-324.72,356.5,681.22,4.575,24.30834315224267,796.875,797.4934895833334,2.0739695818379036,0.894890492214302,4.235381184266851,62.42786693169322,2.0605352117362172,88.35157044444654,0.020833333333333332,10,0.15135585833333334,0.002579402745132528,-2.1198228406637463e-06,35.999,0.012206555615733642,-9.062502458361e-06,72.87533333333334,0.2735170114555128,0.8499999999999943,-0.00026881951736640346
S059,7781.0,7810.984375,W,0.33560937500000015,101.05239787555512,-239.27,225.91,465.18,10.945,47.6990714098978,828.125,828.0192057291666,0.11149240133549711,0.4466491270654554,1.04011916301157,62.33678761662576,0.12038676432736102,63.41135544995076,0.013541666666666667,12,0.152700575,0.0011359100071638636,8.089275197828584e-07,36.00866666666666,0.015434449203720503,1.4027781583057485e-05,72.77566666666668,0.1785064580219859,0.5699999999999932,-0.00014586809512480767
S059,7811.0,7840.984375,W,-0.03513020833333359,101.84648202576618,-246.88,195.74,442.62,10.6,43.98266822299528,812.5,826.025390625,0.09126331714087295,0.2406227452996818,1.267615033542869,62.35876217430755,0.10402766370630522,63.387695966961914,0.08020833333333334,25,0.156191275,0.001481903792212903,1.998505099420861e-06,36.035333333333334,0.017461067804943973,1.7013893504200903e-05,72.71766666666666,0.16185761918701602,0.5300000000000011,9.406252551609372e-05
S059,7841.0,7870.984375,W,-0.3347760416666664,112.75650717480718,-245.22,200.29,445.51,13.25,46.32885917151893,843.75,844.5719401041666,0.06441510347391795,0.4772959406181405,1.1253081175282618,62.341446946125714,0.08057706493353894,63.39558344238185,0.06145833333333333,29,0.1579312916666667,0.0010537200639941782,7.778094557859871e-07,36.05,0.012649110640673249,-7.91666881420033e-06,72.18299999999999,0.1746453549339345,0.6199999999999903,-0.00022211811580894966
S059,7871.0,7900.984375,W,0.587494791666667,116.15455148890427,-234.48,231.96,466.44,14.504999999999999,43.780778473166336,828.125,835.8968098958334,0.27559712633056727,0.47725956533979846,1.4552702205881063,62.414824170554326,0.28345856626185323,67.43144666993287,0.013541666666666667,9,0.15900944166666667,0.0010366083300507299,8.275039137109168e-07,36.05666666666668,0.011925695879999684,4.861112429772863e-06,71.71166666666666,0.17567172668234374,0.46999999999999886,-0.0002770486862653796
S059,7901.0,7930.984375,W,-0.3662395833333329,129.2211420976689,-518.16,696.19,1214.35,9.254999999999999,38.95647707510059,859.375,847.7376302083334,3.9815970708215818,1.545321891472417,3.282632645200089,62.61154689414023,3.798358705574488,116.36580253665593,0.020833333333333332,9,0.15540135,0.0024312783662441147,4.5445151216675154e-07,36.04066666666667,0.01878533707147288,-1.3055559097100713e-05,71.77633333333333,0.38316648542840326,0.9699999999999989,0.0006179515565189744
S059,7931.0,7960.984375,W,-0.22348958333333388,118.12693669404383,-238.2,228.41,466.61,14.03,38.828018021175005,828.125,821.4192708333334,0.05581428468591172,0.40463889937682573,1.0616903573691134,62.41401556578312,0.07241745311445907,63.419239982831705,0.1,52,0.157536325,0.0012648411043980994,1.6226560391319561e-06,35.99966666666667,0.014255603186895565,-1.385417042485043e-05,72.31233333333334,0.17822613600579468,0.5300000000000011,0.00027190979598247636
S059,7961.0,7990.984375,W,-1.6918281250000002,121.15683561564961,-263.5,241.37,504.87,11.78,39.374626971972184,828.125,818.6604817708334,0.20665732085723182,0.2999547853658762,0.9784344558400424,62.506019992180775,0.21546013652019075,64.57553716385176,0.016666666666666666,10,0.15940425833333335,0.0017720864891225135,-8.724379536778276e-07,35.96333333333334,0.01955050439815372,-2.8194452092679592e-05,72.90666666666667,0.11736931266543045,0.4399999999999977,4.6597234862531415e-05
S059,7991.0,8020.984375,W,1.9430416666666666,109.83591270105266,-254.36,370.71,625.0699999999999,10.875,40.04455280653287,828.125,812.4267578125,0.13287273960657076,0.49402242835950505,1.3548231581762085,62.62389850203075,0.17512778387351885,64.62197768561404,0.178125,34,0.15892396666666667,0.001578828974975513,2.3274103535726914e-06,35.92399999999999,0.0147422295916652,-1.4375003899470386e-05,73.43366666666667,0.18573248384586666,0.7399999999999949,0.00027996535372323687
S059,8021.0,8050.984375,W,-0.7758124999999993,109.71071143279423,-454.22,290.65,744.87,12.879999999999999,41.176468273059484,828.125,822.2005208333334,0.06441510347391795,0.29720193985833193,0.7969968588743342,62.63008601428208,0.09912539345459348,62.80127387243033,0.005208333333333333,5,0.16119721666666667,0.0010143283835732037,2.689935625525081e-07,35.91533333333332,0.010241527663825826,1.805556045344187e-06,73.90100000000001,0.21977791821139386,0.7000000000000028,-0.00018121532693558272
S059,8051.0,8080.984375,W,-0.23781250000000032,115.21122745855332,-233.02,210.0,443.02,15.265,40.214814469187495,828.125,835.4899088541666,0.05589199343873463,0.49300664859163473,0.7918797684676211,62.60211439763507,0.10339058021515829,63.57672530100933,0.23541666666666666,30,0.16157069166666668,0.0009821835520566213,8.88954451213775e-07,35.91533333333333,0.01146976702272425,3.6111120906878814e-06,73.21033333333335,0.23754976086893637,0.9300000000000068,-0.000404479276388692
S059,8081.0,8110.984375,W,1.4798125,114.88432584681578,-232.1,214.09,446.19,16.085,35.639845076991456,812.5,820.6217447916666,0.03225804701500421,0.3487079325484613,0.8783412149788689,62.710913541095394,0.08938404736564878,62.90468980926621,0.27291666666666664,46,0.16226436666666666,0.0009055124601879097,-1.6563893382132583e-07,35.926,0.010832051206182974,-3.7500010172534656e-06,72.21166666666666,0.15952185499868662,0.5699999999999932,-5.1493069523943904e-05
S059,8111.0,8140.984375,W,-0.7128333333333327,117.4745827788103,-327.01,398.43,725.44,7.15,23.13159378942898,796.875,804.6223958333334,25.555283211109202,14.5525603894603,25.57280728082512,62.996371849205296,2.7177749177076898,94.05317644821997,0.0375,10,0.15256195833333333,0.014015306692087191,-2.1370693514185526e-05,35.93999999999999,0.020493901531920898,2.6597229437184722e-05,72.835,0.2722713107667916,0.7000000000000028,0.00043371539543060855
S059,8141.0,8170.984375,W,0.3451666666666666,21.299114906623597,-88.99,66.08,155.07,-3.955,15.53818852467723,796.875,798.7711588541666,0.6221462627246284,0.5125127030945996,0.537280922730889,63.43704407814591,0.24320148171020403,64.22616289332565,0.019791666666666666,16,0.12597335,0.0010672864786457326,-1.9848833509340753e-07,35.92033333333333,0.038512624192883656,-6.39236284515066e-05,72.20766666666667,0.3103834545991277,1.0799999999999983,-0.0004525348449801541
S059,8171.0,8200.984375,W,-0.058765624999999905,41.58827012471067,-246.57,430.45,677.02,0.305,51.667898840208956,781.25,805.7942708333334,0.7548425838470487,0.35483851716504633,0.38068463316839507,63.36682523545211,0.2450365544197909,64.69157595854347,0.058333333333333334,37,0.126026725,0.0009963269791464077,-7.247326184713072e-07,35.79633333333334,0.03449476610862723,-5.8923627095168224e-05,71.287,0.5355691676462838,1.3299999999999983,-0.0009277433072220341
S059,8201.0,8230.984375,W,-0.003973958333333316,27.731713681972582,-203.54,159.47,363.01,0.795,37.23130834446573,812.5,804.3863932291666,0.4931430869095365,0.25556098084518997,0.22505545227170623,63.33938716022992,0.23083363381380353,64.93843238021688,0.0625,39,0.12511935000000002,0.0009352664740596685,-3.135782100635347e-07,35.702999999999996,0.031638584039113515,-5.1493069523945814e-05,71.80066666666669,0.37856688826268053,1.4399999999999977,0.0005612501522488469
S059,8231.0,8260.984375,W,-0.008781250000000058,24.244842374076494,-213.1,197.68,410.78,1.4849999999999999,45.23515787364061,828.125,848.14453125,1.5033758308849083,1.1438994096401134,0.9566447986757328,63.260909197899146,0.6755189031354227,68.66585760041157,0.10520833333333333,64,0.12479910000000001,0.0010810776521601034,2.207279244596158e-07,35.644999999999996,0.017464249196571406,-2.69097295219508e-05,72.73666666666665,0.29962569241564596,0.8900000000000006,0.0005334723669358622
S059,8261.0,8290.984375,W,-0.06990625000000002,15.158424500077318,-83.68,51.01,134.69,1.085,39.79104406059463,781.25,796.7122395833334,0.23897340841724538,0.30886778005411236,0.22609446388008314,63.3915197985411,0.24283251671548936,64.21059102671458,0.036458333333333336,29,0.12533285,0.0010800230448930273,1.0174612135040224e-07,35.60066666666668,0.015260697523012078,-1.597222655496489e-05,73.09999999999998,0.1659718851693442,0.5,0.00012062503272163162
S059,8291.0,8320.984375,W,0.033885416666666696,16.63060577818411,-70.38,103.85,174.23,1.29,70.38452791920592,781.25,811.6048177083334,0.9878685801245135,0.2382571993782256,0.29703212216395425,63.42828071165512,0.2906130820867964,64.93843238021688,0.030208333333333334,17,0.125855925,0.0009281112914812565,1.2203974664706713e-07,35.56266666666667,0.014126413400279722,-1.6041671018250517e-05,73.89566666666666,0.5516924465275538,1.6800000000000068,0.0009746877644009811
S059,8321.0,8350.984375,W,0.058125000000000177,16.704290314822565,-112.89,75.35,188.24,1.66,44.87041603579416,750.0,770.8577473958334,0.6558993772337001,0.5018185245656265,0.4483718617273935,63.265433838252726,0.4114076538762476,64.8459713474939,0.04583333333333333,34,0.125525,0.0009355101282188266,-2.2183990392792584e-07,35.534666666666666,0.017269111795983776,-1.81250049167203e-05,75.641,0.45852917028254553,1.6200000000000045,0.000824687723710862
S059,8351.0,8380.984375,W,-0.8743906250000004,196.87421783454025,-889.17,802.78,1691.9499999999998,3.27,18.42160331648687,781.25,788.671875,21.984197291590053,36.26007150259448,22.500902735555535,65.79228662472937,9.662212687722679,145.78065715313537,0.10104166666666667,37,0.11676177500000001,0.010801650371172068,-4.839243934256701e-07,35.529666666666664,0.03341490020268757,3.420139816661168e-05,76.57266666666668,0.1979551015311874,0.6200000000000045,0.00023000006239151189
S059,8381.0,8410.984375,W,0.7119270833333327,59.55724004437258,-261.93,444.37,706.3,2.6950000000000003,43.05240387131536,781.25,803.2877604166666,0.4728019317501428,0.36821995804138585,0.4679843283671177,64.14553072737638,0.4539780132856961,64.62197768561404,0.0010416666666666667,0,0.13481145833333336,0.00564231624408486,9.952422187614523e-06,35.60133333333335,0.021092389359408922,7.152779718095169e-06,75.76166666666668,0.5159204288346105,1.8399999999999892,-0.0008106599421278057
S059,8411.0,8440.984375,W,0.3053124999999997,66.4385931174282,-138.3,118.09,256.39,8.59,45.800110306623175,812.5,822.4934895833334,0.5174211141565446,0.3476343040826092,0.40926233606602774,64.18138645083712,0.400062388844736,65.30696746902278,0.003125,1,0.14665947499999998,0.002458416444795643,4.135335106156435e-06,35.545333333333325,0.03008137112714301,-4.798612412818106e-05,73.93233333333333,0.5398190025884181,1.7999999999999972,-0.0009516322025911993
S059,8441.0,8470.984375,W,-0.5922083333333333,77.53031439995969,-164.75,134.5,299.25,7.325,40.38073800973466,828.125,828.6783854166666,0.36517065787792974,0.04559597630883184,0.3580894882528978,64.17588134254106,0.353558917422517,64.41273166075166,0.0,0,0.15375743333333333,0.001993992392719246,3.2332066062300896e-06,35.464666666666666,0.026297443897755644,-3.9305566217873664e-05,72.86233333333332,0.3116160386686721,0.9500000000000028,-0.00041003483345128844
S059,8471.0,8500.984375,W,0.11143229166666639,78.61120924816612,-170.01,131.94,301.95,10.55,51.30733908439151,859.375,858.7972005208334,0.6558993772337001,0.29720193985833193,0.3800527649770051,64.17518563539804,0.3560879978303398,65.40642170307133,0.03333333333333333,24,0.15947892500000002,0.0017419863717535278,2.7985699865912594e-06,35.41333333333333,0.01556349003990495,-1.784722706359261e-05,72.31566666666667,0.4754063758746007,1.4899999999999949,-0.0007629515958527542
S059,8501.0,8530.984375,W,0.040890624999999875,87.10969521473889,-179.74,174.98,354.72,10.780000000000001,33.09591199780763,859.375,858.5856119791666,0.4999305507323548,0.11110243021644485,0.38436088501635485,64.19983251560681,0.3753398034237679,64.52906321960671,0.0,0,0.164452725,0.0016644444116205802,2.531699254475698e-06,35.36300000000001,0.016155494421401486,-1.225694776935235e-05,70.74333333333333,0.3875765157430919,1.019999999999996,-0.0006563890669458174
S059,8531.0,8560.984375,W,-0.26499479166666656,85.4443347046776,-162.35,159.3,321.65,9.42,36.49910146080475,843.75,848.7711588541666,1.3157433471447064,0.41894688572127564,0.44487826050130463,64.16985262793766,0.40673133076863166,65.19202405202648,0.017708333333333333,12,0.16898924166666665,0.0018977000728769644,2.952737129106215e-06,35.34066666666668,0.012364824660660521,5.55555706259674e-07,70.07433333333333,0.2122684359222767,0.6300000000000097,0.00022704867270200837
S059,8561.0,8590.984375,W,-0.0530885416666667,92.64907563282625,-180.0,159.54,339.53999999999996,9.625,63.4954565897532,859.375,861.7838541666666,0.6153341106328605,0.4691479792015403,0.139283726964862,64.11091343496923,0.1412274780262312,64.22616289332565,0.0,0,0.17379234999999998,0.0013834734104781327,1.8253142972315231e-06,35.33900000000001,0.010440306508910356,-2.118056130115445e-06,70.40233333333335,0.26154264576843833,0.7299999999999898,0.00036739593299585653
S059,8591.0,8620.984375,N1,1.1897864583333335,93.95427553196103,-200.8,162.71,363.51,12.06,75.94827290375866,875.0,872.0703125,0.3458443145846922,0.33772497645602434,0.14379528272281164,64.0732574187688,0.144252376717476,65.07687761409578,0.004166666666666667,4,0.17710159999999997,0.0012888045584959773,1.6840929047561107e-06,35.34,0.012649110640673247,-3.6805565539706737e-06,69.63566666666665,0.5160793435983351,1.7999999999999972,-0.000914896081514778
S059,8621.0,8650.984375,N2,-0.7270885416666669,86.33998802887047,-176.97,137.56,314.53,9.219999999999999,37.91419188838541,890.625,880.0699869791666,0.33226390949899376,0.032258047015004204,0.09090593428863095,64.06506228551451,0.09175703322460531,64.13267497929586,0.0,0,0.1798019,0.0011813259457067716,1.3496883001541616e-06,35.33533333333333,0.012036980056845266,-4.236112260230792e-06,69.051,0.5482660546364931,1.5300000000000011,-0.0007535071488463394
S059,8651.0,8680.984375,N1,-0.26272395833333334,95.21273092466225,-276.72,382.9,659.62,7.640000000000001,63.046915000998425,875.0,875.0325520833334,0.6097586043308906,0.42029668753816696,0.17184343144431086,64.03302328820914,0.1709392825872253,65.12296062065974,0.0020833333333333333,2,0.1830359166666667,0.0016977920003312804,2.509714222470223e-06,35.32833333333333,0.010979779394667148,-8.854169068514672e-06,68.736,0.24027206801179868,0.8500000000000085,0.00019791672035501353
S059,8681.0,8710.984375,W,0.17914583333333323,90.17807273955458,-350.82,390.62,741.44,9.365,28.221500524127457,875.0,876.7985026041666,3.6003398216831175,1.3576521649677675,1.8911239584937019,63.78522728367772,1.8699902948706209,95.2260468569393,0.030208333333333334,16,0.18776483333333335,0.003095835956930245,3.4837652679484684e-06,35.315333333333335,0.011469767022722266,4.16666779695027e-07,68.74733333333333,0.20720253108707112,0.6199999999999903,0.0001475694844752302
S059,8711.0,8740.984375,W,0.18443749999999995,69.5455101077124,-149.46,124.44,273.9,8.43,53.548522762585804,828.125,832.0393880208334,0.4933542717966472,0.1066322779852955,0.4990866223384697,63.71066159407389,0.5015966959623049,64.31174076325411,0.2125,146,0.19115883333333336,0.001280618108137198,1.5254426881083718e-06,35.333333333333336,0.010110500592069143,2.9166674578637326e-06,69.40466666666667,0.4917366051951899,1.2800000000000011,0.0008278474467902164
S059,8741.0,8770.984375,W,-0.005624999999999917,52.842047184520034,-205.64,149.32,354.96,6.045,64.30564524939781,859.375,877.5797526041666,0.9144290872208491,1.0404320808830123,0.6555849805072311,63.71386754708682,0.6585644936360336,68.9129886160802,0.041666666666666664,22,0.19169243333333336,0.001174966678487336,7.92344832992849e-07,35.339000000000006,0.00943398113205676,3.576389859045597e-06,70.60133333333333,0.23625880348089162,0.8000000000000114,0.00014854170696118382
S059,8771.0,8800.984375,N1,-0.2770364583333332,56.67820556677412,-168.07,144.35,312.41999999999996,4.380000000000001,75.56683027496263,906.25,887.9801432291666,0.26999871398870695,0.4547194170737477,0.4893128685548064,63.84005895005743,0.4873379250503477,65.19202405202648,0.0020833333333333333,2,0.19421162499999997,0.0014038741162850084,1.8217003639595234e-06,35.37066666666667,0.019821424996423066,1.8750005086263406e-05,69.387,0.7913202048896948,2.260000000000005,-0.0013805212078236806
S059,8801.0,8830.984375,W,0.021223958333333334,62.45655100591137,-141.71,116.32,258.03,5.795,72.51077944542368,906.25,908.69140625,0.5083664179807273,0.3754496725224597,0.4229525846816507,63.93942635875582,0.4205237764673814,64.20280367709809,0.0,0,0.196560125,0.001057579528628933,8.231428014167734e-07,35.38633333333333,0.014715826703095736,-3.0902786160688877e-06,67.141,0.549262232453679,1.5200000000000102,-0.0009270488625892089
S059,8831.0,8860.984375,N1,0.3920885416666669,75.47068112203183,-328.92,202.68,531.6,9.19,58.197424009891755,906.25,892.138671875,3.841329974399781,1.8410110894824132,1.218133747331913,64.0257231119103,0.9495112762162371,80.50465825031493,0.020833333333333332,10,0.19812915833333336,0.0013121819360377854,1.3384137745262992e-06,35.37333333333333,0.01757523510195115,2.777778531296643e-07,66.94133333333335,0.7355847258398502,2.1299999999999955,0.000958472482224523
S059,8861.0,8890.984375,N2,-0.8294687499999998,89.83470090967228,-226.89,182.36,409.25,10.34,69.33382654931629,906.25,889.0787760416666,0.6527510891411825,0.35529232877855516,0.24803918541230538,63.9931326335613,0.24752254462758114,66.03029607687671,0.0125,9,0.20105333333333336,0.0011207492533519248,9.08987659773131e-07,35.36333333333334,0.01490711984999648,-1.0208336102520735e-05,67.641,0.5760286451210573,1.6000000000000085,0.0007028821351134266
S059,8891.0,8920.984375,N1,1.4116302083333339,76.21114489937591,-188.9,153.47,342.37,10.49,67.43762110778914,890.625,872.7620442708334,0.3453545254718532,0.3494027021416533,0.18356696760915955,64.0131737043477,0.18271279012033093,65.06150935845248,0.004166666666666667,4,0.20287872499999995,0.0009542637996775348,5.907390925399034e-07,35.405,0.04638606112472447,7.885418805723469e-05,68.79133333333333,0.4984892732602739,1.5,-4.263890045543334e-05
S059,8921.0,8950.984375,N1,-0.8911250000000004,83.9724126808484,-175.82,150.45,326.27,7.635,81.86743430335345,921.875,921.7366536458334,0.3569118486522034,0.15436009824613212,0.19763137332473865,64.0178224796093,0.19808660369298445,66.12110101926616,0.00625,5,0.20521655,0.0014900709370697692,2.023802632324923e-06,35.577,0.04789919971495751,8.281252246433577e-05,68.916,0.34278856457005774,0.9699999999999989,-0.0004240973372659877
S059,8951.0,8980.984375,N1,-0.783145833333333,84.38078272097108,-167.95,148.38,316.33,9.645,71.75522882384142,921.875,917.2932942708334,0.3265986323710904,0.12801909579781015,0.12827311899051785,64.02655861045415,0.12829329189335809,65.03076195155643,0.0010416666666666667,1,0.2068391416666667,0.0010325285007836598,1.629091153724815e-07,35.700333333333326,0.03439799735772791,5.7604182292802184e-05,66.85333333333334,0.7302161019558234,2.4000000000000057,-0.0010487502844917242
S059,8981.0,9010.984375,N1,1.1533020833333334,87.21120725077662,-220.9,135.87,356.77,12.77,58.17925164835925,875.0,878.5237630208334,0.15046225071056493,0.13188915142607024,0.09636964965693294,64.02970603232589,0.09615307549598869,64.06246951218786,0.0,0,0.20761842500000002,0.000949955048607567,2.0710617597281342e-07,35.79533333333333,0.028720878971383267,4.66666793258122e-05,66.11933333333333,0.3994824429461485,1.1500000000000057,0.0005417362580664746
S059,9011.0,9040.984375,N1,-0.569640625,84.78469886415492,-161.54,141.27,302.81,8.02,74.26313712615071,875.0,847.021484375,0.33306629928922893,0.2807402788462437,0.16950704672339992,64.01786053207769,0.16767894555324417,65.0384501660364,0.004166666666666667,3,0.20983815833333336,0.0011532432165840953,1.0112322621615327e-06,35.864000000000004,0.024846193538111263,3.680556553970326e-05,67.579,0.49275653217385207,2.1599999999999966,0.0007484377030267216
S059,9041.0,9070.984375,N1,0.7778802083333327,107.66158996740002,-327.17,545.77,872.94,7.515000000000001,77.98897621241504,937.5,933.3414713541666,1.0979067836367329,0.6347768294951297,0.4436619630980325,63.98618596458294,0.4309455176030377,69.18092222571191,0.017708333333333333,11,0.2092938916666667,0.0018366767262088428,-9.681619379779595e-07,35.925999999999995,0.020912516188479224,2.62500071207732e-05,70.08833333333335,0.5927792356537305,2.3799999999999955,-3.218750873142396e-05
S059,9071.0,9100.984375,N1,-0.6949427083333336,90.87941880761132,-225.9,150.76,376.65999999999997,5.91,73.84258400033308,906.25,901.0091145833334,0.6766112136042381,0.29587551049103966,0.22242937393448933,63.989013907024315,0.22326935895635305,66.07571414672717,0.011458333333333333,7,0.211311025,0.0011746577903266164,8.224665859555651e-07,35.91066666666666,0.017499206331209143,-2.6875007290312562e-05,70.28466666666667,0.2968471361192857,0.9199999999999875,-0.0003823612148332285
S059,9101.0,9130.984375,N2,-0.5498177083333329,96.11554222825438,-241.64,174.09,415.73,9.3,75.33994518440286,890.625,909.5621744791666,1.370242717246352,0.45960878404899963,0.19763137332473862,64.00088773587134,0.17652389940007263,65.0384501660364,0.009375,8,0.21320045,0.00116763226124495,1.2615407067981496e-06,35.855000000000004,0.02473189573539792,-3.9687510765923894e-05,68.07033333333334,0.6728471016674014,2.5799999999999983,-0.000440451508369009
S059,9131.0,9160.984375,N2,0.8078958333333334,91.90608155742007,-208.92,154.28,363.2,11.465,60.95754125397292,890.625,884.2203776041666,0.46336138816442907,0.175,0.16372402253657087,64.0182567545475,0.16230765693331484,65.0384501660364,0.005208333333333333,5,0.21480170000000004,0.0009296448031371894,7.972892787785515e-07,35.80100000000001,0.016802777548171634,-2.2812506188288772e-05,67.359,0.38102799547190036,1.1300000000000097,0.00035093759519791657
S059,9161.0,9190.984375,N2,0.0346302083333334,96.04977258436944,-344.55,190.02,534.57,10.55,41.499175556322626,890.625,881.2906901041666,0.33539563857480315,0.14359895446075582,0.12031137264984092,64.02650037315078,0.12058869593899887,65.06150935845248,0.0020833333333333333,2,0.2162321416666667,0.0009640412188268852,6.882920703917306e-07,35.76333333333333,0.01299572579307919,-1.0416669492369532e-05,67.81566666666667,0.3669212752379212,1.1500000000000057,0.00043496539576969224
S059,9191.0,9220.984375,N1,0.26998437499999933,92.41192642721684,-187.47,152.11,339.58000000000004,10.865,98.55960726989922,875.0,880.6722005208334,0.5335519978174573,0.13238185901860655,0.11172573064826602,64.02214699582387,0.11229742556633518,65.07687761409578,0.004166666666666667,3,0.21786506666666666,0.0012371202564378687,1.6376996630044706e-06,35.73933333333333,0.01236482466066231,-3.704599361411807e-19,68.473,0.4521220336738002,1.3499999999999943,-0.00014781254009671688
S059,9221.0,9250.984375,W,-0.620203125,95.4499913453287,-189.93,160.29,350.22,8.975,72.36019464849237,906.25,898.6735026041666,0.520412329845821,0.19328741821874149,0.15699820858850586,64.00043700416398,0.1557934830861877,65.01538279515087,0.003125,3,0.21946585,0.001231710001380199,5.065669776928663e-07,35.71333333333334,0.012472191289245255,-1.04166694923705e-06,68.51566666666666,0.3589678103798295,1.1700000000000017,-0.00028295146564438783
S059,9251.0,9280.984375,W,0.11437499999999995,90.0181226332891,-206.25,200.76,407.01,7.835,67.40347086392903,875.0,888.7858072916666,0.563825598528087,0.19038292917754532,0.17748422758562707,63.98410495592834,0.1766012138935774,65.01538279515087,0.0020833333333333333,2,0.22090679999999996,0.0009633559103467445,4.219962082237988e-07,35.693999999999996,0.017048949136726367,-4.305556723512277e-06,68.01033333333334,0.37815766846941173,1.259999999999991,-3.586806528539069e-05
S059,9281.0,9310.984375,W,0.03448958333333359,91.35180430592385,-194.86,169.31,364.17,10.305,63.780968733935794,890.625,882.1126302083334,0.5216150383797317,0.13635890143294643,0.1853317923721909,64.0057355073306,0.1859359181039345,67.05967491719595,0.00625,5,0.22178215,0.0010413461132111656,-4.297800645019702e-07,35.701,0.01795364401266084,-6.59722401182531e-07,67.934,0.28856657233065997,1.009999999999991,7.875002136230993e-05
S059,9311.0,9340.984375,W,0.5693697916666667,84.75237605118565,-182.88,144.98,327.86,10.985,64.54623346280025,859.375,861.6455078125,0.4703675793698182,0.17809453930582922,0.20740417800891947,63.98248118870792,0.20770797602528815,65.03076195155643,0.008333333333333333,8,0.222390625,0.001072558639131211,7.347404336860958e-07,35.693333333333335,0.017950549357115663,1.1111114125197914e-06,68.64066666666668,0.45589423724758327,1.2000000000000028,0.0007910418812505116
S059,9341.0,9370.984375,W,-0.3114739583333337,92.77029863831434,-187.01,160.19,347.2,8.629999999999999,84.64053563996713,828.125,826.3834635416666,0.41204599384251595,0.22242937393448936,0.16996731711975951,63.99322268520518,0.17002557182531183,65.03076195155643,0.00625,6,0.22388512500000005,0.0009339862468874936,4.133783673443878e-07,35.69066666666666,0.02096558025802304,4.097223333665159e-06,69.46166666666667,0.3363736348500325,1.0,0.0003512153730510475
S059,9371.0,9400.984375,W,-0.3078697916666667,99.84268232498378,-202.89,156.95,359.84,9.635,68.93219935679167,890.625,884.814453125,0.4126880358461529,0.28103965899950056,0.13591255358583407,63.994874060643646,0.136359680107655,65.0384501660364,0.0010416666666666667,1,0.22499532499999997,0.0011276660939192054,1.1673004468588454e-06,35.689,0.017953644012660523,2.1180561301155446e-06,69.33966666666667,0.5221205693026181,1.5,-0.0007060765804244199
S059,9401.0,9430.984375,N1,0.3722239583333335,100.67961407511665,-371.47,289.51,660.98,12.385000000000002,72.24620111283363,796.875,836.81640625,1.489590253480429,1.9990750356762221,1.6543293370896728,63.97546158729494,1.5813700892635867,97.94896630388705,0.014583333333333334,7,0.2257319083333333,0.0015752212278271351,-9.051475979675588e-07,35.702,0.02103964511741215,2.5555562487944587e-05,69.029,0.5825538601708867,1.8100000000000023,0.00032614592180607626
S059,9431.0,9460.984375,N1,-0.6191718750000003,86.50286148140106,-170.38,148.49,318.87,9.775,59.31291457365069,828.125,838.6800130208334,0.0,0.045595976308831845,0.10642856726723121,63.99637151271286,0.1063400528177,64.01562309311689,0.0,0,0.22568919999999995,0.000972773103040995,4.7537122270269873e-07,35.745000000000005,0.0187527775720482,3.4375009324815913e-06,71.507,0.6038771950211939,1.9799999999999898,0.0007849654907132923
S059,9461.0,9490.984375,N1,0.016973958333333292,90.39610601091631,-340.04,149.67,489.71000000000004,11.955,46.718788529702316,859.375,856.0302734375,0.7402659701737087,0.1504622507105649,0.2009498926971597,63.991161237835676,0.19903961075601018,66.007575322837,0.009375,8,0.2274184416666666,0.0010172367210228054,7.631679587586717e-07,35.74333333333334,0.012995725793080042,-5.277779209468409e-06,72.26633333333332,0.38884858521309035,1.25,1.121528082011878e-05
S059,9491.0,9520.984375,N1,-5.0235989583333325,140.86221992575614,-1199.65,590.05,1789.7,9.27,50.6882427143915,828.125,828.857421875,10.29186487663382,11.718424578814979,8.324873244676496,64.15133856173912,3.404887771589906,117.76671855834313,0.0375,19,0.22492056666666665,0.009353218130438079,-8.148276515917028e-06,35.766666666666666,0.01043498389499959,7.152779718094377e-06,71.14400000000002,0.28087482383913775,0.8199999999999932,0.00036013898658284203
S059,9521.0,9550.984375,W,5.819890624999999,126.67236376828329,-494.19,632.12,1126.31,10.585,44.68147785598651,859.375,844.7835286458334,0.5027172260575521,0.4287201864431962,0.13667682889047275,64.07342649168523,0.13760189415808857,66.03786792439622,0.0020833333333333333,1,0.23098304166666667,0.0014064212052572315,1.357617338763377e-06,35.79833333333333,0.02098941532190805,2.7673618618060695e-05,71.722,0.31082041974962626,1.0799999999999983,0.0003238889767493944
S059,9551.0,9580.984375,W,-1.0324635416666672,98.89615318618168,-212.97,190.4,403.37,6.71,50.32263546428629,859.375,868.3512369791666,0.46611644460430224,0.32142802028171436,0.23485136774256937,64.07239815149097,0.2386666786172329,68.24954212300622,0.005208333333333333,2,0.23814537500000005,0.0028600327942831386,3.3313084123558057e-06,35.81066666666667,0.01209223809814432,-7.56944649778817e-06,71.09766666666665,0.49425151042313953,1.3999999999999915,-0.0008826738505517157
S059,9581.0,9610.984375,N1,1.2236354166666668,96.94861747720842,-187.44,174.12,361.56,9.73,72.72125535558114,890.625,898.9990234375,0.224166569857476,0.4268291926780808,0.12447371850002001,64.05811868582035,0.12555383979645765,65.0384501660364,0.0020833333333333333,2,0.2398957916666667,0.0010244753201503708,-6.627894593070325e-07,35.802,0.014236104336041977,-6.250001695421654e-06,68.86066666666666,0.8401663856377228,2.469999999999999,-0.001260555897503227
S059,9611.0,9640.984375,N1,0.024447916666666934,93.77824112749202,-186.67,193.45,380.12,9.120000000000001,54.957112150046626,890.625,883.251953125,0.5198114976176995,0.45780153807505813,0.11110243021644485,64.04938637171912,0.11208808845277363,64.10148204214939,0.0,0,0.23667256666666667,0.0023177295345996663,-3.823348259371826e-06,35.8,0.012382783747338595,6.59722401183416e-06,67.82966666666667,0.218578488318397,0.7999999999999972,-4.920140223562366e-05
S059,9641.0,9670.984375,W,-0.6241510416666668,95.4070005959561,-187.53,177.1,364.63,6.395,66.69874164738948,906.25,894.7347005208334,1.0750358319286646,0.4226638714911518,0.2937259889713918,64.04744926473602,0.2818705631966142,67.03730304837748,0.01875,13,0.231335275,0.0010234090821245345,-6.885932857512122e-07,35.79533333333334,0.012578641509409166,9.305558079849985e-06,67.84333333333333,0.3275396498474987,0.9500000000000028,0.00014958337391042143
S059,9671.0,9700.984375,N2,0.2674270833333337,100.67021868739333,-188.23,165.05,353.28,9.41,53.00638507872335,859.375,854.4108072916666,0.4901802655231372,0.2363252195069329,0.11557806855349137,64.03646740947339,0.11460096908517346,64.10148204214939,0.0,0,0.23083355,0.001021904764398319,4.181042800847094e-07,35.80333333333335,0.01299572579307907,6.1111127688573765e-06,67.69933333333334,0.31745795872139504,1.2299999999999898,0.0003277084222299315
S059,9701.0,9730.984375,W,-0.08073958333333368,99.28482156976723,-241.61,242.3,483.91,9.145,67.1746170151966,843.75,879.7281901041666,5.4196782493418265,0.553726916687178,1.5096851676940977,64.10390131142096,0.5074889052347415,69.0,0.036458333333333336,18,0.23301125833333333,0.0014089085757885626,1.3944398313910136e-06,35.82633333333333,0.02428762830926152,3.697917669790932e-05,68.79366666666667,0.2018164732842405,0.6000000000000085,0.00027135424027621295
S059,9731.0,9760.984375,W,-0.30874479166666663,98.55665630445279,-485.85,262.85,748.7,9.435,62.570320412105325,875.0,869.4661458333334,0.3400303805871208,0.4554788002750512,0.18257121422581624,64.18142925767626,0.18077640489175562,65.13063795173512,0.0010416666666666667,1,0.23422819999999997,0.0009913391498372324,3.669532245424341e-07,35.934,0.023323807579382332,3.152778633023944e-05,69.43766666666667,0.46818574186842654,1.539999999999992,-0.000491145966565205
S059,9761.0,9790.984375,W,0.8957708333333334,93.93430621499961,-179.58,159.76,339.34000000000003,11.235,75.73424210783888,890.625,879.6468098958334,0.5329262769527008,0.4353917456983104,0.16862135013758556,64.14432198716847,0.16992196186308242,65.13063795173512,0.0010416666666666667,1,0.23571202499999994,0.001064881413292113,1.1244892373288983e-06,35.942666666666675,0.014126413400278436,-1.041666949236828e-06,68.44699999999999,0.45594699984391407,1.3499999999999943,-0.0005549654283217842
S059,9791.0,9820.984375,N1,-0.2351718749999997,103.66689387102467,-357.3,181.85,539.15,12.54,73.51857573005819,937.5,905.2734375,3.7702641144959004,2.7882745249327385,2.391361542310503,64.14174006563975,2.2699793725727546,102.1420579389313,0.020833333333333332,6,0.24651375,0.006726769622498359,1.102425255649213e-05,35.92466666666666,0.013597385369582281,3.19444531099357e-06,68.35833333333333,0.5045861890918352,1.480000000000004,0.000393507051190064
S059,9821.0,9850.984375,W,-1.166963541666667,116.37040807042759,-334.61,243.65,578.26,7.92,55.70222672874658,890.625,889.55078125,0.9832665717096594,0.36252244901752867,0.12011279421166311,64.00523942181471,0.12142167370135867,65.0384501660364,0.0010416666666666667,1,0.2562698916666667,0.001915288959033913,2.5203012479115783e-06,35.914666666666655,0.015216949614018229,-6.1805572321377754e-06,68.56400000000001,0.27981660660749386,0.8199999999999932,0.0001151389201223196
S059,9851.0,9880.984375,W,0.6508958333333332,108.85381615826941,-207.81,211.86,419.67,9.719999999999999,73.29488076671026,859.375,855.6559244791666,0.20123048128258852,0.03225804701500421,0.07198059875565237,64.01093698556109,0.07179529137500773,64.07807737440318,0.0,0,0.25571495000000005,0.0016101031170393998,-1.8250269707646923e-06,35.89799999999999,0.014236104336040846,-9.861113786108647e-06,68.55933333333334,0.5850352316076558,1.730000000000004,0.0002843750771416794
S059,9881.0,9910.984375,W,-0.7347604166666664,108.6222902478704,-227.38,187.71,415.09000000000003,9.665,61.64913355674039,890.625,891.4794921875,0.261354561079814,0.03225804701500421,0.12401959270615269,64.00114114082035,0.12406049382581928,64.07807737440318,0.0,0,0.2590982416666667,0.0057999611923929195,8.330860549821108e-06,35.88733333333333,0.00997775303139766,-3.7500010172526274e-06,68.404,0.22255486215013792,0.75,-0.00011159725249491431
S059,9911.0,9940.984375,W,0.5995729166666667,108.50051859575035,-229.84,213.28,443.12,11.785,72.63593856950075,890.625,902.3763020833334,0.24224069756247724,0.05581428468591172,0.10642856726723121,64.00406175421459,0.10643759996234727,64.03905058634146,0.0,0,0.2594185083333333,0.0035616597418334593,-5.935097313123176e-06,35.86866666666666,0.0164789427924099,-2.291667288320526e-06,67.93733333333333,0.572101001183844,1.710000000000008,-0.0007370835332800395
S059,9941.0,9970.984375,W,0.8550000000000001,105.30279251550029,-250.81,220.54,471.35,12.0,77.68786352510206,890.625,886.3362630208334,0.4878192953651542,0.0,0.13188915142607024,63.99242632819908,0.13148877016646174,64.03905058634146,0.0,0,0.248008225,0.0024805643862587014,-3.889262990793997e-06,35.86166666666667,0.01714318782749659,9.54861370133724e-06,67.33066666666667,0.2874013840529579,0.9300000000000068,-7.916668814201688e-06
S059,9971.0,10000.984375,W,-1.2702864583333333,91.77680968075954,-197.26,176.18,373.44,10.23,42.54682753565689,812.5,819.8404947916666,0.44205957366249476,0.3190953330859325,0.12827311899051785,63.99445953598592,0.1282199817807068,65.01538279515087,0.0010416666666666667,1,0.24461404166666664,0.00632162007900379,-2.959605620552742e-06,35.857666666666674,0.015849991237288984,-8.784724605230103e-06,68.19933333333334,0.7451216157260657,2.7700000000000102,0.0013221531364347703
S059,10001.0,10030.984375,W,1.2606927083333337,96.42876192476533,-444.52,475.57,920.0899999999999,12.995000000000001,31.803302120540867,812.5,828.9713541666666,7.063834682144441,5.989367659160458,3.1712679016706655,64.22743145564235,2.194350384684311,99.13122616007531,0.026041666666666668,9,0.221568775,0.01080545385246304,1.3476427049812023e-05,35.87466666666667,0.023055488621052958,2.7013896216876194e-05,71.45800000000001,0.9478516058258637,3.1000000000000085,0.001672569898158069
S059,10031.0,10060.984375,W,-1.252057291666666,95.9702494558147,-268.96,333.06,602.02,6.745,44.72433248454981,828.125,838.818359375,0.07880950133074056,0.07902948640996107,0.16827350421923892,64.16652532784066,0.16691520276760374,64.28063471995279,0.0,0,0.231687575,0.002053318511834356,6.250095011418926e-07,35.92933333333333,0.022201101073797382,3.423612039825593e-05,72.30766666666668,0.3643321134471794,1.1500000000000057,-0.0006518404546008167
S059,10061.0,10090.984375,W,0.9407031250000011,197.2170580257411,-759.29,695.83,1455.12,-5.725,18.215921221991863,921.875,921.4436848958334,23.943003587476873,18.694006409837396,30.24772142976572,65.86415492386652,8.033884770037657,121.63058825805291,0.078125,19,0.193272275,0.04844183616547486,4.301168072148456e-05,35.95333333333334,0.018678567634829075,9.930558249392598e-06,71.492,0.6253073910752476,2.259999999999991,0.0006683335146304009
S059,10091.0,10120.984375,W,-0.22553645833333275,135.56516240440627,-599.51,563.94,1163.45,6.865,0.0,921.875,921.875,18.920226812564614,13.778258682663383,15.604577764945201,65.63848094652141,7.538527864674847,115.10864433221339,0.11041666666666666,46,0.17338681666666667,0.015336551198027614,1.0054691963620865e-05,36.08166666666667,0.050138696521637556,8.70486347245644e-05,76.02333333333333,1.2685223249469793,4.560000000000002,0.0021650005872939975
S059,10121.0,10150.984375,W,-0.3363124999999995,147.0427718547759,-642.97,548.84,1191.81,-0.765,0.0,921.875,921.875,22.757442978891543,29.36990026654273,18.592027114390252,65.22183033412045,5.030566356505506,103.64362016062542,0.09895833333333333,42,0.16538144166666666,0.01175464376235752,1.2752839830956981e-06,36.21366666666666,0.03655893263698483,6.086807206707795e-05,82.90833333333333,2.334779194889505,7.980000000000004,0.00414850806979928
S059,10151.0,10180.984375,W,-0.033354166666667004,142.92338274440516,-668.71,435.33,1104.04,7.225,0.0,921.875,921.875,25.89051917768221,29.74228709250611,25.771680273572848,65.93648578248927,8.925189595871785,113.73653766490345,0.12604166666666666,35,0.15491029166666667,0.024767034636251146,-2.8457265315013383e-05,36.26,0.012382783747339742,6.4583350852698585e-06,91.70833333333333,3.5550875125968737,10.61999999999999,0.006368439227549703
S059,10181.0,10210.984375,W,-3.8925468749999994,228.5921066156988,-1621.73,744.99,2366.7200000000003,-11.57,0.0,921.875,921.875,21.10559489963996,13.249445579333583,22.528477324967998,65.9901181567713,6.385867650943189,101.90682018393078,0.09375,32,0.13236709166666666,0.01765908407165928,2.1899633761836415e-05,36.305,0.022323380867003462,3.329862014393897e-05,95.888,0.43393855171748225,1.5499999999999972,-0.0007164585276851463
S059,10211.0,10240.984375,W,3.374546875000001,275.29390984531364,-1860.87,2030.22,3891.09,-8.49,0.0,921.875,921.875,22.85584920025792,8.94665414793197,29.876928818923837,64.93480833036905,3.7501167223927085,97.96938297243685,0.08333333333333333,39,0.17377119166666669,0.021140285473196997,-2.3838267968280155e-05,36.234,0.04543126676640239,-4.20139002858898e-05,94.55333333333334,0.9359641493609077,3.5799999999999983,0.0006952085219207151
S059,10241.0,10270.984375,W,-11.454010416666666,251.57566959639578,-1262.35,1116.11,2378.46,-1.72,0.0,921.875,921.875,20.56491711561761,11.3558062654089,11.270881036174467,64.79112803391364,4.63752122291746,131.49144458861193,0.06875,29,0.16964034166666664,0.007320401282825773,5.987592987085771e-06,36.15533333333333,0.0231996168550732,-3.659723214985594e-05,104.12633333333333,3.2445189508187844,10.11,0.005387675072611511
S059,10271.0,10300.984375,W,12.406713541666665,138.6747865435426,-237.93,1041.12,1279.05,4.745,89.84940515678741,734.375,776.0091145833334,0.18591926264435923,0.39409569260594,0.18292746266545717,63.70521022269054,0.19985115161946065,64.47480127925948,0.029166666666666667,23,0.17788087499999997,0.0009580775330707877,6.791414602705806e-07,36.118,0.01222020185321632,-6.1111127688566616e-06,100.25233333333334,3.8626231875357564,12.850000000000009,-0.0069414254940932864
S059,10301.0,10330.984375,W,0.11775000000000044,130.15206314850525,-294.11,360.48,654.59,7.33,29.990079749555594,828.125,830.0048828125,2.582986997953575,1.0854501554334754,2.557532447931447,63.57302213003955,0.9596130748909236,71.90966555338719,0.022916666666666665,12,0.18058110833333335,0.0023265821706093264,2.770994458277569e-06,36.13366666666666,0.023732303348435443,3.5798620822106375e-05,82.58099999999999,5.489349293556264,16.67,-0.009773995706921577
S059,10331.0,10360.984375,W,0.2755104166666668,105.54024985091536,-291.83,394.87,686.7,-3.815,34.49196615372502,859.375,862.6790364583334,0.4030913530316532,0.15138251770487457,0.20644719108850412,63.48322752336035,0.295152306328778,64.66838485689897,0.20833333333333334,109,0.18223528333333333,0.0010454184982048487,-5.812866160174163e-07,36.159,0.017194960502038434,-2.0937505679660905e-05,74.58200000000001,1.3712899037038078,4.170000000000002,-0.0022508339439111166
S059,10361.0,10390.984375,W,-1.2341302083333334,156.25916969217934,-277.73,316.53,594.26,-7.875,30.847624997730772,921.875,936.3444010416666,0.3421680772011842,0.0,0.0,63.917426607054466,0.22838402995751297,64.00781202322104,0.0,0,0.18232067500000002,0.0008350415973920087,2.1600201171929478e-07,36.106666666666676,0.024267032964268416,-3.923612175459053e-05,70.70366666666665,0.4437452973146745,1.8100000000000023,-0.0007887154917305479
S059,10391.0,10420.984375,N1,1.6559375000000003,169.57978480723145,-316.56,343.39,659.95,-0.20500000000000002,0.0,968.75,968.75,0.11557806855349137,0.05581428468591172,0.0,63.99772103627846,0.07928112016454729,64.00781202322104,0.0,0,0.18345222500000002,0.0008822872969588776,1.7207882272103497e-07,36.027,0.02596792893808194,-3.93402884495118e-05,68.98333333333333,0.3054432116704434,1.0799999999999983,-0.0004922223557460814
S059,10421.0,10450.984375,N2,-2.2969635416666656,159.94266186049146,-285.82,322.91,608.73,-10.844999999999999,0.0,968.75,968.75,0.03225804701500421,0.19249988726547926,0.07880950133074055,63.9900636181606,0.0847042527027545,64.00781202322104,0.0,0,0.18380450000000004,0.0008750895954129527,2.4352350355997904e-07,35.976666666666674,0.014681810363697024,-1.2847225707255716e-05,68.28033333333333,0.33825516338343575,0.9799999999999898,-0.0004522570671270238
S059,10451.0,10480.984375,N2,2.745166666666667,163.81078795643992,-301.04,345.88,646.9200000000001,-0.595,14.002353470397786,968.75,960.05859375,0.0,0.17116012950028855,0.09090593428863096,63.99220775359221,0.08198671291019545,64.00781202322104,0.0,0,0.1851282,0.0009047967782878129,1.5734509476592246e-07,35.94466666666666,0.014544949486181576,-1.5833337628401747e-05,68.286,0.10528057750601442,0.3500000000000085,1.3194448023666692e-05
S059,10481.0,10510.984375,N2,-1.997755208333333,182.85956512333811,-334.79,382.14,716.9300000000001,-4.775,0.0,937.5,937.5,0.0,0.32471775939096537,0.162326296048696,63.949807849908105,0.1520448174048722,64.00781202322104,0.0,0,0.18527765000000004,0.0010672864786457326,9.813218807839336e-07,35.92999999999999,0.014605934866806712,-1.6250004408098353e-05,68.35966666666667,0.2175390131039083,0.7800000000000011,0.0003808681588726566
S059,10511.0,10540.984375,N2,1.5600260416666667,190.96174746543193,-369.57,371.82,741.39,3.3049999999999997,0.0,937.5,937.5,0.0,0.49152540343528756,0.3041220715025465,63.80295783391118,0.2546827650609912,64.00781202322104,0.0,0,0.18637717499999998,0.0011215864408840744,1.1178173605190347e-06,35.90666666666666,0.014681810363696163,-9.6527803962617e-06,69.164,0.20985074060706438,0.7700000000000102,0.0002816667430736611
S059,10541.0,10570.984375,N2,-0.24907812499999976,191.24576875829757,-380.35,382.25,762.6,6.61,0.0,937.5,937.5,0.0,0.36110844016106236,0.3621031712056969,63.62135841960978,0.263870884237066,64.00781202322104,0.12708333333333333,91,0.18753006666666663,0.0009570966228942386,-2.460039729828478e-07,35.90599999999998,0.010832051206180174,5.138890282902108e-06,70.01233333333333,0.13627627167714307,0.45000000000000284,5.3298625569287835e-05
S059,10571.0,10600.984375,N2,-0.6954895833333341,194.29933344549713,-347.48,330.11,677.59,11.865,0.0,937.5,937.5,0.09090593428863096,0.09636964965693294,0.33993463423951903,63.59251002986886,0.23265088514786483,64.35060217278468,0.014583333333333334,14,0.18764749166666667,0.0009499869384701488,1.9290651934312907e-07,35.90933333333332,0.013148721948877312,2.152778361755681e-06,69.48066666666666,0.12396056720676275,0.5100000000000051,-0.00013319448057576226
S059,10601.0,10630.984375,N2,-1.3939270833333335,184.28329293733606,-344.18,336.09,680.27,7.665,0.0,937.5,937.5,0.17950549357115014,0.09636964965693294,0.3903123748998999,63.574058906627066,0.28223950239388007,64.35060217278468,0.03229166666666667,30,0.18894978333333334,0.0009351310530555982,3.596593857582935e-07,35.90733333333332,0.012364824660660497,1.1111114125197923e-06,69.03533333333333,0.21409862732446985,0.5799999999999983,0.00029743063623877933
S059,10631.0,10660.984375,N2,2.3337083333333326,182.12329280399337,-334.87,293.56,628.4300000000001,18.875,0.0,937.5,937.5,0.4249068014642218,0.032258047015004204,0.4609348516873073,63.63221498579568,0.3730049170529413,64.35060217278468,0.125,95,0.18962210833333337,0.0009553420573790366,3.8935579138340286e-07,35.913999999999994,0.012000000000000455,1.1666669831454166e-05,69.61066666666666,0.15993609835042127,0.6899999999999977,0.00024381951058471943
S059,10661.0,10690.984375,N2,-1.732598958333333,173.30712299678422,-371.14,318.27,689.41,11.33,0.0,937.5,937.5,0.2870750936166354,0.1356408400888169,0.47920176501889283,63.866126554041315,0.3463557658096326,64.35060217278468,0.2989583333333333,184,0.19026237500000007,0.0009903854221337259,-9.859269167553383e-08,35.92133333333333,0.009910712498213887,2.083333898474148e-07,70.13833333333335,0.07434529051811158,0.25,-8.579863438548037e-05
S059,10691.0,10720.984375,N2,0.7347135416666665,167.59880561496786,-331.87,284.88,616.75,15.545,31.657482622389146,875.0,901.5950520833334,0.25124473114984036,0.2763853991962833,0.48439068074976654,63.87319721268738,0.34473830046678655,64.35060217278468,0.29583333333333334,189,0.19035837500000002,0.0010214822486832545,-4.3683931120857935e-07,35.93866666666666,0.015216949614019173,5.069445819620032e-06,70.01,0.03346640106136132,0.11999999999999034,2.5138895708249777e-05
S059,10721.0,10750.984375,N2,-0.7227135416666663,158.9038817410584,-313.03,295.17,608.2,11.89,18.570555209664207,828.125,833.8623046875,0.17677362623014656,0.46639570816766984,0.46599188565896726,63.78422174026537,0.3293533897242206,64.35060217278468,0.18541666666666667,127,0.19075322500000003,0.001047684816333139,4.382216900557968e-07,35.949333333333335,0.015902480589168468,2.020833881519546e-05,70.29533333333333,0.2485656631332818,0.8999999999999915,0.0004347917846114844
S059,10751.0,10780.984375,N2,-0.20015624999999962,153.9660470501416,-283.74,275.91,559.6500000000001,12.49,22.101306439004095,859.375,849.3489583333334,0.03225804701500421,0.4818944098266986,0.36985914877228,63.6038440120682,0.2601798515672116,64.35060217278468,0.1625,90,0.19127610000000003,0.0009106346358446978,-4.2414768450186883e-07,35.964000000000006,0.01171893055416335,1.8750005086260166e-06,71.19533333333334,0.15489207712325345,0.5500000000000114,0.0002637500715467885
S059,10781.0,10810.984375,N2,1.038473958333334,150.67794441192265,-282.33,280.38,562.71,13.48,32.19713710802587,843.75,845.9309895833334,0.0,0.339934634239519,0.12401959270615269,63.43300294299482,0.13296353137899883,64.03124237432849,0.14895833333333333,98,0.19166035,0.0009489447178313423,1.8623529357511285e-07,35.97566666666667,0.012023125864581584,1.0868058503705952e-05,71.53999999999999,0.1238547536431289,0.37000000000000455,-8.743057927261879e-05
S059,10811.0,10840.984375,N1,0.2186822916666672,148.22095509738963,-290.05,274.3,564.35,14.254999999999999,36.16578851240201,859.375,849.6175130208334,0.06441510347391795,0.11580316603568698,0.13188915142607024,63.39796786259496,0.10085084717703782,64.07807737440318,0.034375,24,0.19164965833333333,0.0008759865247806197,1.325870585359863e-07,35.995333333333335,0.009213516640723212,9.722224859547998e-07,71.97566666666668,0.2628901333679539,0.6799999999999926,0.000412257056276323
S059,10841.0,10870.984375,N2,0.557515625,143.29304812103572,-256.92,245.78,502.70000000000005,11.24,43.65054057372685,828.125,837.1500651041666,0.194978186101819,0.03225804701500421,0.032258047015004204,63.408462005210836,0.13794733439082754,64.07807737440318,0.041666666666666664,37,0.19236485000000003,0.0009781469355367865,-2.9078263096317125e-07,36.00566666666666,0.013828312341794526,-2.3958339832451344e-06,71.872,0.12846270535321277,0.3999999999999915,4.9791680173524855e-05
S059,10871.0,10900.984375,N2,-0.3360989583333333,141.0147309246471,-307.21,233.01,540.22,14.245000000000001,59.745329137391,828.125,846.5413411458334,0.1592592172022985,0.0,0.06441510347391795,63.40070593295126,0.11844353128713173,64.07807737440318,0.030208333333333334,29,0.19253565833333336,0.0009920036919944212,1.4847291353974492e-07,36.01033333333332,0.01516208722072591,6.840279633322576e-06,71.45166666666665,0.15279797846248713,0.4300000000000068,-0.0002487847897094185
S059,10901.0,10930.984375,N1,-0.5806718749999997,145.80339348587364,-293.19,263.14,556.3299999999999,8.565000000000001,55.22837185224808,828.125,828.5563151041666,0.29292696461272083,0.07880950133074055,0.05589199343873465,63.44475818927346,0.2095430853480329,64.07807737440318,0.096875,80,0.19313345,0.0010612904397477665,-5.58213693091824e-07,36.026666666666664,0.019550504398152507,1.1527780904887471e-05,71.91833333333334,0.1810724225889252,0.6700000000000017,0.00015677087586015673
S059,10931.0,10960.984375,N2,-0.7790156250000005,140.33729681266936,-280.03,254.74,534.77,11.765,67.23559922545273,812.5,804.4759114583334,0.194978186101819,0.03225804701500421,0.0,63.40712608857124,0.13657545421260622,64.07807737440318,0.03958333333333333,33,0.19264240000000002,0.0009266982194868004,-5.837892208629632e-08,36.04533333333333,0.015216949614017284,1.3680559266644485e-05,72.60233333333332,0.393121553155708,1.019999999999996,0.0006256598919433319
S059,10961.0,10990.984375,N2,1.7113229166666675,155.36310965940905,-294.02,287.24,581.26,14.16,40.467093952191824,859.375,862.1256510416666,0.23632521950693283,0.06451609403000842,0.07902948640996109,63.42202317734161,0.17107822599558103,64.07807737440318,0.06354166666666666,53,0.19338965,0.0009640653906763827,9.418466096589141e-07,36.056666666666665,0.01299572579307919,7.361113107941323e-06,72.19633333333334,0.31507124414787224,1.0899999999999892,-0.00054725709289743
S059,10991.0,11020.984375,N2,-0.030380208333333176,155.6467271419855,-323.24,277.5,600.74,14.675,29.671798703278206,859.375,861.5478515625,0.2885548282196797,0.09090593428863095,0.03225804701500421,63.4419310328631,0.20292483363758876,64.07807737440318,0.09270833333333334,79,0.19254632500000002,0.0010864926688086802,-6.263224355258365e-07,36.076666666666675,0.012995725793080042,3.0555563844283782e-06,71.09533333333336,0.7372323619833537,1.8900000000000006,-0.0012023614372725243
S059,11021.0,11050.984375,N1,-0.10290104166666698,149.38763238520406,-289.3,290.12,579.4200000000001,13.155000000000001,45.21581631798379,828.125,830.5338541666666,0.3041220715025465,0.139283726964862,0.032258047015004204,63.4463980696058,0.2174403974738241,64.07807737440318,0.10416666666666667,84,0.19254632500000002,0.0008776252442671674,-6.699676296570198e-08,36.09266666666668,0.011234866364234344,8.333335593886973e-07,70.92699999999999,0.3782957396887616,0.980000000000004,0.0006098265543149292
S059,11051.0,11080.984375,N2,-1.577661458333334,149.08825498607072,-388.51,291.24,679.75,8.865,64.94284976384274,828.125,808.4554036458334,0.382617935250035,0.23632521950693283,0.07880950133074055,63.489980450049515,0.2804147862173415,64.42049363362563,0.18333333333333332,140,0.19313345,0.0010219047643983304,1.6957686891733706e-07,36.10533333333334,0.01431394036905512,8.958335763437258e-06,71.73733333333332,0.3054824963161653,1.0300000000000011,0.0005419445914563246
S059,11081.0,11110.984375,N2,0.004010416666666335,140.90889454404532,-345.37,345.53,690.9,10.515,53.689031892670954,828.125,848.1608072916666,0.42425895361467886,0.2870750936166354,0.07198059875565237,63.51970414548429,0.3117455214514137,64.07807737440318,0.21979166666666666,136,0.19271712500000004,0.0009192284587495132,-3.4054371217006195e-07,36.13966666666666,0.013780017739061711,1.440972613110929e-05,71.877,0.4120772581284563,1.0499999999999972,-0.0006840626855638799
S059,11111.0,11140.984375,N2,0.7965364583333326,142.57400842243052,-439.86,296.86,736.72,17.25,63.33869242163349,843.75,855.46875,0.2900232719350102,0.16862135013758556,0.10187052648664707,63.440348259096346,0.20494982614518256,64.07807737440318,0.1,72,0.193144125,0.0009769229034959752,3.883588293074095e-07,36.150333333333315,0.009122621455600858,-4.826390198130061e-06,71.867,0.5466818087333781,1.4699999999999989,0.0008319793923555177
S059,11141.0,11170.984375,N2,-1.2328697916666664,134.56434011067176,-267.94,236.61,504.55,11.425,27.873385456276427,796.875,796.8424479166666,0.405366293119226,0.21794494717703367,0.03225804701500421,63.50988099819024,0.283605822189817,64.07807737440318,0.1875,136,0.19414757500000002,0.0008697996288657549,6.922072190232285e-08,36.155666666666654,0.00919540948275524,7.67361319271152e-06,73.43333333333334,0.8050935073366042,2.1700000000000017,0.0014205559409060156
S059,11171.0,11200.984375,N2,0.15949479166666644,132.49556785749544,-310.59,243.71,554.3,12.399999999999999,33.19546380510685,796.875,789.0543619791666,0.3621031712056969,0.3269555881113247,0.17267490629471585,63.46629702677846,0.2719069241429109,64.42049363362563,0.16666666666666666,119,0.19797942500000001,0.0038805298342333354,5.764862457916244e-06,36.16933333333332,0.014126413400279586,8.819446836873695e-06,75.335,0.33471131840239127,1.2000000000000028,0.00037746538017181694
S059,11201.0,11230.984375,N2,2.1253593750000004,143.48049780761446,-309.05,266.43,575.48,15.485,50.89252441805263,765.625,784.3180338541666,0.49716972391226727,0.38522517765587433,0.03225804701500421,63.63694425265456,0.35903971628281456,64.72248450113763,0.35,202,0.2017045,0.0016284050018346204,1.9500977512200966e-06,36.194333333333326,0.022903177848402987,2.7604174154778474e-05,75.67066666666668,0.16401083975016728,0.5799999999999983,-1.4027781583056116e-05
S059,11231.0,11260.984375,N1,-2.135963541666665,141.07087699062808,-275.92,270.14,546.06,9.515,40.4187165556505,812.5,820.1253255208334,0.49727992759500045,0.4182664600433822,0.03225804701500421,63.62387112138851,0.3720755240683194,64.07807737440318,0.35,190,0.21761956666666665,0.012140373479107729,1.876122644347506e-05,36.218333333333334,0.012133516482132532,4.895834661412878e-06,75.828,0.42199052122056,1.1100000000000136,-0.0006684029590936834
S059,11261.0,11290.984375,N1,1.397546875,146.77325389501348,-313.0,365.21,678.21,13.485,36.32666654405123,828.125,831.9661458333334,0.2343726851737539,0.470287986164388,0.33653249956562725,63.299238577533195,0.28892704592451657,64.72248450113763,0.1875,127,0.24558510833333339,0.007385331722177225,1.0176188741370642e-05,36.24666666666666,0.01639783183500049,1.9791672035503937e-05,74.729,0.2991582635774363,1.269999999999996,-0.0003886459387602923
S059,11291.0,11320.984375,N2,0.6956822916666674,135.07485217021454,-277.73,283.81,561.54,15.885000000000002,56.59766837362212,812.5,830.0537109375,0.232399078305449,0.4946545862743236,0.19982631347136331,63.3153700773024,0.2548600417995925,64.42049363362563,0.09791666666666667,83,0.2459801166666667,0.005073638692929257,2.536939490272211e-06,36.26466666666667,0.01627540748764527,1.666667118779032e-05,73.57799999999999,0.259286199658471,0.8499999999999943,0.00015527781989958095
S059,11321.0,11350.984375,N2,-1.6588072916666665,140.2253679044631,-264.17,277.32,541.49,9.43,42.668548133960776,796.875,806.0302734375,0.44807531105272913,0.48218141288373567,0.045595976308831845,63.462328442597695,0.343926315540635,64.07807737440318,0.171875,132,0.24310886666666667,0.004429614796897004,-7.437785437767314e-06,36.29066666666667,0.014126413400277843,9.09722469000247e-06,74.036,0.21976654279788316,0.7700000000000102,0.00012875003492568275
S059,11351.0,11380.984375,N2,1.589562500000002,140.76924068391241,-333.61,409.63,743.24,15.145,43.768403557321996,812.5,830.9895833333334,0.5928822240523174,0.4976332875611205,0.39155583538267213,63.45869971433773,0.35162323422239805,64.07807737440318,0.18125,111,0.22862425833333333,0.00439371069161332,-7.594331704191535e-06,36.308666666666674,0.016878651868229955,1.4652781752599383e-05,73.80633333333331,0.1525447111141144,0.45000000000000284,-0.00021003477919780172
S059,11381.0,11410.984375,N2,-0.6754687499999997,116.29241125189672,-287.06,238.49,525.55,9.45,52.260693879938636,812.5,807.6090494791666,0.2162430755153407,0.22876622210238995,0.5030624529789738,63.541111810338435,0.3211721854931561,64.42049363362563,0.028125,23,0.21685099166666666,0.0025487813574851586,-4.2966064172651945e-06,36.406,0.04446721638840641,7.770835441307431e-05,73.651,0.10574655234726776,0.3400000000000034,-3.29513978275275e-05
S059,11411.0,11440.984375,N2,-1.2098333333333333,116.73424115393358,-274.39,224.99,499.38,11.51,71.48384830579604,843.75,834.0576171875,0.08538490263051322,0.31218734359355443,0.4720255922322668,63.59655228919364,0.3102342037745414,64.48255578061404,0.05625,41,0.21237849166666667,0.0013865155786829673,-1.8566882206728082e-06,36.48333333333334,0.013498971154211415,1.6041671018249287e-05,73.78066666666668,0.133988390873573,0.4000000000000057,-6.833335186994529e-05
S059,11441.0,11470.984375,N2,0.5749010416666669,136.89586586804234,-338.88,491.58,830.46,12.26,38.93528547226612,812.5,816.3411458333334,0.03225804701500421,0.16627231993028782,0.49228421668788036,63.517240063171506,0.31918869670764966,64.07807737440318,0.017708333333333333,13,0.20984886666666663,0.0010755927662869883,-1.139348399345815e-06,36.548,0.03134751452135708,5.125001390245651e-05,72.99366666666668,0.41267810969595026,1.4500000000000028,-0.0007367015887319859
S059,11471.0,11500.984375,N2,-0.38773437500000035,122.67811312758289,-275.62,219.43,495.05,11.615,49.6283700910612,828.125,833.4065755208334,0.06441510347391795,0.211794170914436,0.5081967029496441,63.4613003588537,0.33043924810456365,64.72248450113763,0.022916666666666665,16,0.20899517499999998,0.0009964506984166382,7.502495524765519e-07,36.64366666666667,0.02073376205344436,3.1909730878288754e-05,72.30033333333334,0.2946351793131461,0.8500000000000085,-0.00035871537508555225
S059,11501.0,11530.984375,N2,1.3160364583333333,123.646398291192,-241.99,214.88,456.87,14.690000000000001,34.93266178722004,812.5,823.3642578125,0.03225804701500421,0.21794494717703367,0.4956746507286812,63.428119933516506,0.320575055348547,64.48255578061404,0.434375,192,0.20909117500000002,0.0009350224566153505,-3.6760621951123684e-07,36.71633333333334,0.018162843634432945,2.2812506188286553e-05,72.57266666666666,0.3118432654751777,1.0,0.0005033334698712757
S059,11531.0,11560.984375,N2,0.07974999999999971,122.10946024017072,-326.01,250.93,576.94,8.545,52.53113502087939,812.5,828.5237630208334,0.0,0.1798798789007079,0.4969426928032603,63.42827996147682,0.319780333747859,64.07807737440318,0.44375,195,0.20752232499999998,0.0010967171783896723,-1.133050871595833e-06,36.758,0.016000000000001555,1.4861115142447835e-05,72.759,0.22425209029126056,0.6199999999999903,0.00031725703050592156
S059,11561.0,11590.984375,N2,-1.6870416666666666,124.74492429386295,-285.09,217.53,502.62,9.485,32.78458533114484,812.5,828.6539713541666,0.0,0.2582808246366733,0.4999121016488799,63.46998126975839,0.3243880646967671,64.07807737440318,0.028125,23,0.205504775,0.0010167061888151283,-6.663536963850011e-07,36.78066666666667,0.016110727964792203,1.750000474718003e-05,72.754,0.03988316269638776,0.14999999999999147,-5.090279158604094e-05
S059,11591.0,11620.984375,N2,1.582234375,127.47861791401719,-252.8,248.14,500.94,12.355,72.57111551002477,828.125,831.3151041666666,0.0,0.1595859170809115,0.4999609359740019,63.46524056585705,0.3254969296687378,64.07807737440318,0.016666666666666666,13,0.204800225,0.0009177396277675878,-3.3275985589188633e-07,36.812333333333335,0.015423647068345456,2.0243061046836832e-05,72.55099999999999,0.3466636217815004,1.0100000000000051,-0.00047093762775000963
S059,11621.0,11650.984375,N1,-1.5196822916666666,136.84344105907542,-327.09,259.29,586.38,8.42,41.484937933426764,859.375,842.9931640625,0.0,0.09126331714087295,0.49607837082461076,63.49448679048784,0.3164604439168709,64.07807737440318,0.0010416666666666667,1,0.20397824999999997,0.0009536067782372371,-5.026147196763017e-07,36.818333333333335,0.010354816378004481,-8.298613362252975e-06,72.21733333333331,0.2910776910417951,0.8400000000000034,-0.0004018056645523199
S059,11651.0,11680.984375,N1,-0.5726562499999999,142.4989690895698,-318.95,424.29,743.24,10.84,61.62155320469313,843.75,853.6865234375,0.03225804701500421,0.1798798789007079,0.49264997011626366,63.51875277610434,0.32003244856670776,64.07807737440318,0.021875,14,0.20338045,0.00093818614757414,-3.2414201501248356e-07,36.81933333333333,0.011234866364233528,-8.611113447024035e-06,71.78333333333333,0.41277381484563863,1.230000000000004,0.0003076389723413024
S059,11681.0,11710.984375,N2,0.6851145833333329,146.23023881767534,-292.51,253.71,546.22,13.69,78.71477250778979,906.25,882.2428385416666,0.0,0.17499999999999996,0.49228421668788036,63.51747204893351,0.315427508230106,64.07807737440318,0.0125,10,0.20232362499999995,0.0009698988010998903,-2.13222063048521e-07,36.81466666666667,0.009910712498210955,-1.736111582061543e-06,71.93333333333334,0.3547518694649669,1.3500000000000085,-0.00019875005391440132
S059,11711.0,11740.984375,N3,0.6834531250000003,146.0535243940374,-293.38,266.38,559.76,13.48,53.08585126924564,859.375,852.5390625,0.0,0.16080513029923998,0.4856937692620732,63.53395101997169,0.3105523978938646,64.07807737440318,0.009375,8,0.20150164999999998,0.0008748291133129974,-2.557552777113935e-07,36.79933333333334,0.012364824660661723,-5.694445989162128e-06,70.74900000000001,0.30388978265153954,0.8200000000000074,-0.00046454873712802096
S059,11741.0,11770.984375,N2,0.8243749999999996,143.8052152983514,-297.89,273.69,571.5799999999999,12.149999999999999,62.228106793322986,828.125,835.1643880208334,0.0,0.14427741410983985,0.4795107460271934,63.54572551785191,0.308115362307699,64.07807737440318,0.008333333333333333,5,0.20188594999999998,0.0008299083066821326,-2.6187116478710064e-07,36.78600000000001,0.011999999999999272,-9.72222485954358e-06,70.29666666666665,0.6047056216779266,1.8799999999999955,0.0007350001993815619
S059,11771.0,11800.984375,N2,-2.2000052083333332,145.49851301269788,-319.47,254.71,574.1800000000001,7.74,60.97577623665058,828.125,853.2389322916666,0.09636964965693294,0.14064814624326433,0.49817265908908415,63.488959945725476,0.320946532512252,64.48255578061404,0.0125,10,0.201960675,0.00108649266880868,-1.0533225513570325e-06,36.78,0.011254628677421148,4.861112429775473e-07,71.84333333333333,0.3781122702173121,1.0500000000000114,0.00012923614616865904
S059,11801.0,11830.984375,N2,2.218328125,147.04679569665146,-388.59,335.86,724.45,12.59,31.7166131546844,812.5,812.9964192708334,0.0,0.16129023507502108,0.49986868935473666,63.4452397825254,0.31866744084620385,64.07807737440318,0.4739583333333333,150,0.20096790833333336,0.0009266763368425325,2.590818845165711e-07,36.79600000000001,0.015620499351813264,2.201389486054083e-05,71.27833333333335,0.3654593760673756,1.0499999999999972,-0.0003667709328263142
S059,11831.0,11860.984375,N2,-0.3042083333333331,146.88570046658987,-305.61,257.98,563.59,11.89,42.98122571684071,812.5,815.8935546875,0.045595976308831845,0.12074350109035084,0.49984372557830503,63.446896891915365,0.32214094222733336,64.48255578061404,0.4822916666666667,174,0.20137354999999998,0.0009085673048817054,-2.3017974994025406e-07,36.81333333333334,0.011642832797714428,3.472223164118152e-07,72.28133333333332,0.5268506007926302,1.5600000000000023,0.0007829863235097461
S059,11861.0,11890.984375,N2,0.7014010416666675,157.6150435867719,-411.28,354.67,765.95,15.135000000000002,41.13914902228696,828.125,824.6826171875,0.04559597630883185,0.19354828209002525,0.4622359888357893,63.57547203739326,0.2992717092530774,64.48255578061404,0.0125,12,0.20079713333333335,0.0010554048270161058,-6.915670278773429e-07,36.815333333333335,0.013597385369579818,-6.5277795485507005e-06,74.03233333333333,0.49759209086247486,1.4500000000000028,0.0007305904759631291
S059,11891.0,11920.984375,N2,-0.148114583333334,150.45910626620235,-287.12,269.24,556.36,14.865,57.907447515718964,781.25,798.7548828125,0.0,0.09128709291752768,0.24393467007354422,63.732538574271274,0.15806711345719235,64.07807737440318,0.004166666666666667,4,0.20073310000000003,0.0009380689686798117,-2.784545026189523e-07,36.782666666666664,0.014126413400277262,-1.784722706359103e-05,73.59899999999999,0.5754380939771022,1.519999999999996,-0.0009037849673895862
S059,11921.0,11950.984375,N3,-0.7615677083333341,135.0385376521836,-369.56,360.05,729.61,13.1,38.30509524398856,828.125,832.5764973958334,0.2883573418472681,0.2859541016734834,0.6322487629595561,63.703708830942546,0.3243293323589871,64.57553716385176,0.28020833333333334,137,0.19900426666666668,0.0008736083669979841,-1.4119578482958568e-07,36.79,0.013662601021279173,1.5694448701835296e-05,72.72866666666665,0.26735411390555136,0.75,-0.00039951399726399886
S059,11951.0,11980.984375,N2,-0.847005208333334,134.79714136913898,-260.61,253.17,513.78,7.08,65.83215171220316,812.5,828.0517578125,0.10642856726723121,0.1356408400888169,0.46759116015548835,63.723214398607325,0.29732985463834566,64.15605972938177,0.30520833333333336,151,0.1992709916666667,0.0007328567219658667,2.442203353462282e-07,36.82933333333334,0.012631530214331568,1.7847227063594015e-05,71.98566666666666,0.2794838496625914,0.9200000000000017,0.00017850699286756625
S059,11981.0,12010.984375,N2,0.9523750000000003,138.3012872800456,-307.11,258.51,565.62,12.61,59.24789420587228,843.75,840.0309244791666,0.23632521950693283,0.26339134382131846,0.4998914812792428,63.7748230724069,0.3477073719834412,64.15605972938177,0.4083333333333333,169,0.19899360000000002,0.0008714559598740464,-3.6924575988654515e-07,36.853,0.016155494421401313,2.107639460622459e-05,72.259,0.17775169947616906,0.5600000000000023,-0.00011968753246732007
S059,12011.0,12040.984375,N2,-1.3301093749999988,140.08947982018535,-318.68,315.63,634.31,7.875,60.13835459151973,843.75,847.8271484375,0.2943625410196677,0.2810396589995006,0.4895511957537116,63.82078386024735,0.34947216903157485,64.48255578061404,0.0010416666666666667,1,0.19914295833333337,0.0009197841086892176,-1.8200156846830775e-07,36.87566666666667,0.011455226851627072,8.715280141949112e-06,72.463,0.181386328040456,0.5699999999999932,4.5729179071499066e-05
S059,12041.0,12070.984375,N2,1.6540000000000001,147.57235739784852,-310.97,258.51,569.48,13.315000000000001,65.19912863979931,843.75,826.9775390625,0.2870750936166354,0.4112552241309525,0.40155405579102577,63.90051036244847,0.3224005044721369,64.15605972938177,0.0,0,0.197990475,0.0009303675614374047,-4.3050293796194743e-07,36.87999999999999,0.012382783747338593,1.5972226554963031e-06,73.214,0.5625691068659912,1.6199999999999903,0.0008109029977492921
S059,12071.0,12100.984375,N3,-0.9675885416666666,149.28619276189315,-338.81,318.39,657.2,5.665,58.63873542126265,875.0,868.9534505208334,0.14657179104642054,0.5170015295888613,0.5217065596434456,63.68245006544297,0.36902393196547484,65.73431371817918,0.19583333333333333,120,0.19838535000000002,0.0009378812438150074,1.4726826911574172e-07,36.89399999999999,0.011999999999999272,1.0833336272063324e-05,73.48133333333334,0.26493688975972185,0.8199999999999932,1.4375003899468709e-05
S059,12101.0,12130.984375,N2,1.0523437499999997,158.13173624197853,-593.71,405.25,998.96,12.56,54.1028918895974,937.5,906.103515625,0.16827350421923892,0.42555111326373,0.4609348516873073,63.712813565646655,0.30326701516351795,64.15605972938177,0.12083333333333333,87,0.19832135833333334,0.0008483962693992364,-2.1012614206980636e-07,36.91333333333332,0.016397831834998995,1.9513894182371855e-05,72.04033333333334,0.8047421257079128,2.8700000000000045,-0.0013931601001410875
S059,12131.0,12160.984375,N2,0.06782291666666657,142.22033154379503,-309.11,306.8,615.9100000000001,10.225000000000001,59.44797426163814,812.5,834.9934895833334,0.26506476868347145,0.43480194844894615,0.31598061649411346,63.8042388168783,0.28929627044779166,64.15605972938177,0.19583333333333333,124,0.19763825000000004,0.0010139404013550224,-4.3921973720153024e-07,36.943333333333335,0.011925695880000213,1.2916670170539346e-05,70.848,0.23160886569098818,0.7099999999999937,-0.00025055562352311765
S059,12161.0,12190.984375,N2,-1.9803697916666674,145.4609283114467,-280.99,253.09,534.08,5.865,65.85504035164993,843.75,846.3297526041666,0.30815732589052625,0.4564164460470528,0.2929269646127209,63.80661887651192,0.3091858355219029,64.15605972938177,0.23333333333333334,142,0.1975422166666667,0.0009275996099551107,-2.8624573737134353e-08,36.948,0.007916228058025858,2.430556214886284e-06,71.278,0.3612699821463162,1.3599999999999994,0.00038270843714963994
S059,12191.0,12220.984375,N2,1.5513072916666664,143.04201388312072,-294.04,262.83,556.87,12.05,46.89901160789495,812.5,818.2861328125,0.1874276480775686,0.302757867592056,0.24393467007354425,63.81690444221343,0.21553981860006347,64.15605972938177,0.08854166666666667,58,0.19742479166666668,0.0009047747592249363,2.1070079500346876e-07,36.956,0.012806248474864593,8.263891130612788e-06,72.56400000000001,0.30132595861182276,0.8000000000000114,0.00049833346851494
S059,12221.0,12250.984375,N2,0.8444427083333331,146.71577761775006,-314.63,276.57,591.2,9.265,72.99371508755826,828.125,826.1962890625,0.23239907830544904,0.4330127018922193,0.32349410736518824,63.81278968196815,0.2882383358161376,64.15605972938177,0.20625,119,0.19697645000000003,0.0009381861475741327,-3.8696885497201864e-07,36.97866666666667,0.017838784213679192,2.2708339493363794e-05,72.97733333333332,0.6208055698490118,1.6800000000000068,0.0010216669438115637
S059,12251.0,12280.984375,N2,-0.7614114583333335,136.07925251460955,-272.74,250.17,522.91,8.09,55.1146257806861,796.875,811.865234375,0.15925921720229852,0.486198404860494,0.44545837035824365,63.78030163004728,0.30482067983529115,64.15605972938177,0.23333333333333334,136,0.19648539999999998,0.0008966999999999993,5.2819024744742554e-08,37.001666666666665,0.011855612829185732,8.020835509123953e-06,74.55366666666667,0.19652791715739176,0.730000000000004,0.00031253480700271633
S059,12281.0,12310.984375,N2,-0.9140624999999999,151.3725075219939,-503.99,350.01,854.0,8.275,30.820711275912526,781.25,784.7900390625,0.23632521950693283,0.4766407608782064,0.40155405579102577,63.78980669566252,0.31973175737880427,64.15605972938177,0.253125,142,0.19615446666666667,0.0011129917260349353,-6.235344573389912e-07,37.02033333333333,0.015595583420386252,-1.076389180878223e-06,75.10333333333332,0.22192090683144158,0.6600000000000108,0.0001909722740267693
S059,12311.0,12340.984375,N2,2.0798541666666663,147.0805138244143,-318.68,345.97,664.6500000000001,9.28,30.75256749765602,859.375,859.9446614583334,0.4760302697395759,0.43947841362422646,0.49812038196660413,63.60609978374024,0.31375994148555786,64.26507605223851,0.18125,92,0.19609042499999998,0.0010058886590348882,-1.2481969531784335e-07,37.00233333333334,0.015205992970608833,-1.2673614549048266e-05,74.39,0.4389077351790476,1.25,0.00028534729962763355
S059,12341.0,12370.984375,N1,-0.6193697916666665,137.14559734574635,-306.3,268.76,575.06,8.06,74.63697241514672,859.375,848.4049479166666,0.032258047015004204,0.4938587696649721,0.46393241957267395,63.60136086162184,0.29794554831055314,64.15605972938177,0.13645833333333332,94,0.195876925,0.001021625943961393,1.915384634164675e-07,36.99766666666667,0.0098938813864368,2.6041673730921543e-06,73.70899999999999,0.7943943185429589,2.3499999999999943,-0.001310035077591979
S059,12371.0,12400.984375,N2,-0.6851041666666666,140.9634909651904,-308.15,436.09,744.24,3.45,55.22421362544244,796.875,811.62109375,0.0,0.4807221130757352,0.4788903188622631,63.562493196049594,0.3011788540889723,64.15605972938177,0.078125,61,0.196026375,0.0008655970392596113,1.73746791923501e-07,37.001666666666665,0.01002773930432756,-2.465278446527729e-06,72.27833333333332,0.3505147009121813,1.0799999999999983,-0.0003699653781373104
S059,12401.0,12430.984375,N2,-1.4916875000000003,137.49476591123633,-297.09,383.48,680.5699999999999,9.085,35.103764857134806,843.75,834.3831380208334,0.1682735042192389,0.4999609359740019,0.4883528419738017,63.74129168527697,0.336688717426834,64.15605972938177,0.278125,142,0.19620785,0.0009205292105631432,4.0587250593329764e-07,37.008666666666656,0.016069294390925193,3.819445480534853e-06,72.64166666666667,0.5627674672742042,2.1400000000000006,0.0005028820808599377
S059,12431.0,12460.984375,N1,2.000270833333333,141.25245376456292,-283.28,274.35,557.63,13.535,57.99476827944447,828.125,819.921875,0.24393467007354422,0.4930066485916346,0.4141054092022411,63.84747722936486,0.32220818177612437,64.15605972938177,0.0,0,0.19613311666666663,0.0009861794392446506,-4.0113595950953866e-07,37.038,0.01869046102516727,2.333333966290537e-05,74.32900000000001,0.11443629960229561,0.3399999999999892,7.295140867822281e-05
S059,12461.0,12490.984375,N2,-0.33755729166666626,140.24843640476385,-287.02,267.45,554.47,8.399999999999999,61.90481989372248,843.75,841.9921875,0.25654623798103576,0.49859176687947826,0.4112552241309525,63.830854097282995,0.32304315197622163,64.15605972938177,0.36770833333333336,188,0.1960157,0.0010185538817362614,-3.0690633325367194e-07,37.06333333333334,0.01074967699773308,3.7500010172534656e-06,74.11766666666668,0.2719274821630862,1.0699999999999932,-0.0002341320079568152
S059,12491.0,12520.984375,N2,-0.9770729166666664,144.14738966764082,-344.62,286.56,631.1800000000001,4.98,72.4964184077337,828.125,834.4563802083334,0.22838645595544604,0.4997221450188317,0.4076045792867832,63.838879089206344,0.31724065580398,64.15605972938177,0.0,0,0.19599434999999998,0.000964065390676382,5.042826888787688e-07,37.076666666666675,0.01490711984999987,1.1805558758018939e-05,73.37566666666666,0.43247106518497036,1.230000000000004,0.00020725700066650269
S059,12521.0,12550.984375,W,1.4263020833333329,139.88069062661788,-342.63,291.32,633.95,11.91,63.623460644859605,796.875,802.0751953125,0.1356408400888169,0.49495720914932523,0.4496092053105675,63.837610473460565,0.31143063227619255,64.15605972938177,0.37083333333333335,201,0.19659215,0.0009352664740596657,-4.920509147273523e-07,37.09733333333335,0.013148721948876303,8.12500220404666e-06,73.846,0.45302391401190567,1.5799999999999983,0.00039000010579429937
S059,12551.0,12580.984375,N2,-1.1968489583333335,148.98216279005413,-400.97,515.91,916.88,5.675,53.206673962939476,796.875,803.2389322916666,0.20912350152216008,0.4997872811395753,0.4622359888357893,63.783590588205804,0.33296147346473015,64.15605972938177,0.30833333333333335,148,0.19610109999999997,0.000911822482723477,7.950653198419404e-08,37.09266666666668,0.011234866364234344,5.69444598916082e-06,74.71833333333333,0.24982771841588858,0.7700000000000102,0.0002783681310677442
S059,12581.0,12610.984375,N2,-0.4971927083333334,148.39005990787544,-320.47,280.43,600.9000000000001,7.865,83.61629724700389,812.5,801.9449869791666,0.21578094200034337,0.4996081363734538,0.43942903097529745,63.80059922150856,0.3181938242276429,64.15605972938177,0.30104166666666665,168,0.196197175,0.0010149112741392734,4.7676119703808503e-07,37.08000000000001,0.011254628677424513,-1.8750005086267328e-06,75.56266666666667,0.502924337141174,1.2999999999999972,0.0008610419002392318
S059,12611.0,12640.984375,N2,-0.08717187500000077,147.2498147493587,-316.38,469.16,785.54,4.165,49.34037871249413,843.75,834.1715494791666,0.3872296884243539,0.5019914767287722,0.6605111328336731,63.66518642378667,0.3554283207019063,64.57553716385176,0.18854166666666666,109,0.1968056416666667,0.0010281061293776442,-6.215737363209979e-07,37.09066666666668,0.01209223809814432,2.4305562148863593e-06,75.00933333333333,0.6802790277199169,1.8499999999999943,-0.0011770836526377108
S059,12641.0,12670.984375,N2,-0.1535989583333342,134.8798462155129,-640.54,423.37,1063.9099999999999,9.405,82.6837810872811,828.125,840.0146484375,0.15612494995995993,0.3869395588747966,0.4990224819584785,63.79209677644302,0.33487141551833494,64.15605972938177,0.4010416666666667,184,0.19696576666666665,0.0010256000823366193,3.994623479444295e-07,37.10266666666668,0.01590248058916811,1.826389384328571e-05,73.196,1.0319386286661298,3.1199999999999903,-0.0017472921406499944
S059,12671.0,12700.984375,N2,1.5242552083333338,125.25272516773951,-250.8,267.26,518.06,7.055,80.17829728963815,796.875,802.5553385416666,0.3081573258905262,0.3782139472977637,0.47630941594957177,63.81305917886951,0.3457165034626687,64.15605972938177,0.0,0,0.1966988833333333,0.0009461138953929143,6.33923783073956e-08,37.12733333333334,0.015260697523012491,1.583333762840034e-05,72.20933333333332,0.48155950364991734,2.0600000000000023,0.0007604168729429449
S059,12701.0,12730.984375,N2,-0.4494166666666658,108.2346783540734,-202.19,210.37,412.56,8.21,50.09007023647396,843.75,836.8326822916666,0.09636964965693294,0.3342289400620479,0.49352469367184537,63.751196067709856,0.3139133687562811,64.15605972938177,0.33958333333333335,167,0.196389325,0.0009523512058978029,-6.046388358937801e-07,37.14633333333333,0.011396880664850938,1.1145836356833349e-05,73.29733333333334,0.22928778617468804,0.730000000000004,8.298613362254197e-05
S059,12731.0,12760.984375,N2,0.39919270833333276,115.9304720305826,-250.48,214.33,464.81,5.68,57.76458621992098,781.25,785.5550130208334,0.18483053424390922,0.42425895361467886,0.4948070173057371,63.79395838722761,0.32377711779342794,64.15605972938177,0.3770833333333333,191,0.19665620000000003,0.0009345351304258165,8.228648065496879e-08,37.15633333333332,0.010159833769418414,4.2013900285896425e-06,73.62833333333333,0.38555659622017757,1.2000000000000028,0.0004233681704015215
S059,12761.0,12790.984375,N1,-0.8775677083333334,113.75862041177454,-350.94,233.83,584.77,7.55,50.53035410412737,812.5,799.7477213541666,0.13188915142607024,0.4090767042988393,0.5020692857647572,63.77097526364355,0.3357289438883457,64.78425734698207,0.3729166666666667,189,0.19683766666666666,0.0010349006178802301,-4.6506045601683025e-07,37.16633333333333,0.01168569876197307,-1.0763891808785202e-06,75.43166666666666,1.161857946949148,3.469999999999999,0.0020603130588956868
S059,12791.0,12820.984375,N2,1.2765625000000005,113.45318114551817,-252.98,234.23,487.21,8.969999999999999,68.15771919278829,796.875,804.4352213541666,0.18483053424390922,0.46052506265493665,0.49300664859163457,63.78128705906508,0.3315434950952082,64.15605972938177,0.3489583333333333,168,0.19704049166666668,0.0009830042980224184,4.792685761904781e-07,37.16066666666666,0.011527744310527544,-4.097223333665134e-06,76.59233333333333,0.2934357775656452,1.019999999999996,-0.00029121535677499686
S059,12821.0,12850.984375,N2,-1.1989843749999993,125.5900877207596,-355.05,319.2,674.25,3.1500000000000004,61.46667714780855,875.0,861.4664713541666,0.3660254217605657,0.21919349883277914,0.47696960070847283,63.816534168378084,0.37076506878961707,64.47480127925948,0.0010416666666666667,1,0.19654945000000001,0.0008727424577159075,-3.891928139086353e-09,37.16866666666666,0.011756794725700017,7.430557571224116e-06,75.693,0.5918623150699833,2.1400000000000006,-0.000865034956877973
S059,12851.0,12880.984375,N2,0.2302656250000002,120.2091214668658,-340.76,244.72,585.48,10.945,66.27271602658163,796.875,804.0364583333334,0.28772447456531897,0.2832030950670482,0.4827481640882289,63.83789092084462,0.35463518110834663,64.15605972938177,0.0,0,0.19674160000000002,0.0008656628616268558,2.490834009015302e-07,37.17233333333332,0.015638272140988122,6.284723927063247e-06,74.69266666666665,0.5803673166385417,1.75,-0.00017736115922340587
S059,12881.0,12910.984375,N2,0.5394583333333337,121.94917209179103,-276.19,235.31,511.5,7.89,67.8827313905735,750.0,784.6272786458334,0.2650647686834714,0.2242827108249764,0.4953943697673826,63.81804166245044,0.33889531777449494,64.15605972938177,0.0,0,0.196560125,0.0008889782108550242,-3.700111680802843e-07,37.17066666666666,0.012631530214332356,-1.0416669492368522e-06,74.38233333333334,0.44922661937551667,1.519999999999996,-8.090279972407434e-06
S059,12911.0,12940.984375,N2,-0.48734375000000024,126.47040856431003,-356.93,359.81,716.74,5.79,71.22026674512472,828.125,840.1204427083334,0.20912350152216008,0.25654623798103576,0.49999023427963085,63.790389342202964,0.32560595330373104,64.15605972938177,0.4125,188,0.19667755,0.0008882729014779177,5.965769847485285e-07,37.181999999999995,0.01469693845669998,-8.472224520460425e-06,76.18633333333334,0.3991113740409921,1.3599999999999994,0.0006020487744272939
S059,12941.0,12970.984375,N2,0.22973958333333294,127.70053889673103,-260.54,305.65,566.19,4.755,71.87681149766094,828.125,832.5032552083334,0.19982631347136334,0.36199078218773595,0.4958114490968875,63.81046616224234,0.32505100727058667,64.15605972938177,0.4197916666666667,180,0.19760625,0.0009051764676017513,2.2876091274981034e-07,37.18266666666666,0.015477582354993032,-4.861112429773012e-07,74.80533333333332,0.5838192262069567,2.230000000000004,-0.00023763895335258237
S059,12971.0,13000.984375,N2,-0.6985989583333333,111.58436604792955,-236.16,230.85,467.01,5.0,45.18714314412619,796.875,803.173828125,0.12801909579781012,0.4222940305804581,0.49997287252798917,63.76696276055005,0.3314769393053535,64.15605972938177,0.359375,182,0.19793705000000003,0.0011566033665435964,9.260692616290237e-07,37.179999999999986,0.01732050807569025,7.638890961071374e-07,73.18900000000001,0.33890362445194633,1.3699999999999903,-0.0004882987435706207
S059,13001.0,13030.984375,N2,1.3454687500000009,122.96381286399307,-374.41,263.9,638.31,8.309999999999999,46.08260988147032,781.25,783.1461588541666,0.43119338396478213,0.36727577248650034,0.44111108924573134,63.77876749946155,0.3666623100739772,64.15605972938177,0.4270833333333333,183,0.19856675000000001,0.00094188191271517,-2.676528503832575e-07,37.18899999999999,0.01700000000000105,-5.451390367673318e-06,74.27266666666665,0.43229568070425545,1.9200000000000017,0.0006495140650808565
S059,13031.0,13060.984375,N2,-1.4980312499999997,124.81481936786335,-305.4,287.07,592.47,6.015000000000001,55.066175795415475,828.125,820.6949869791666,0.4068625190098001,0.44111108924573134,0.38261793525003507,63.815541703722374,0.36453677519745403,64.15605972938177,0.0,0,0.19776635000000004,0.0009412300608777766,5.67631664396605e-07,37.187999999999995,0.016613247725837176,-7.500002034506266e-06,74.56666666666666,0.4489939371033368,1.3700000000000045,-0.0005683334875036585
S059,13061.0,13090.984375,N2,-0.1817031250000003,121.64442678469264,-273.75,224.54,498.28999999999996,5.51,82.10354964295381,781.25,797.16796875,0.41620286686769575,0.4890289414293959,0.3529390488770295,63.78567544044156,0.37928697137174383,64.15605972938177,0.0,0,0.19859875833333335,0.0009474790058873123,5.135346445135172e-07,37.193333333333335,0.017950549357115663,6.944446328279232e-08,74.09666666666666,0.2032950783685854,0.6800000000000068,-7.847224350918087e-05
S059,13091.0,13120.984375,N2,0.5808541666666661,110.59379065742675,-282.47,229.81,512.28,6.305,73.2183116285192,843.75,835.9293619791666,0.15761900266148113,0.4521061342176439,0.509415472148117,63.6382099570982,0.3492613008738449,64.26507605223851,0.15520833333333334,86,0.198780175,0.000924756586553992,7.417515032963039e-08,37.198,0.02039607805437161,3.1944453109931738e-06,74.52333333333333,0.24240920407901687,1.0,0.00041229177850797056
S059,13121.0,13150.984375,N2,0.44560416666666663,101.30386512683009,-219.03,194.91,413.94,6.715,68.9955516616002,859.375,848.4375,1.3810469150601736,0.5174053858758462,2.1345008198639794,63.53152966840083,0.47208367172082144,67.3721010508059,0.06875,44,0.19720049166666667,0.0018294122462138493,-2.332004755860659e-06,37.208999999999996,0.02071231517720684,4.131945565305815e-06,74.46966666666665,0.5888434049520769,1.769999999999996,-0.0009938544362669368
S059,13151.0,13180.984375,N2,-0.9482291666666669,101.75177947916512,-331.12,244.94,576.06,-0.065,75.05842511652259,859.375,825.1790364583334,0.05581428468591172,0.13238185901860652,0.30955382037431445,63.49825883907124,0.1746407922261229,64.00781202322104,0.10208333333333333,55,0.1945212,0.000977447676348973,-1.8403260200537223e-07,37.20033333333333,0.016224124698183982,2.1180561301147043e-06,73.4,0.7479750441469754,2.210000000000008,-0.000868125235494045
S059,13181.0,13210.984375,N2,0.08335416666666677,100.2152071964982,-230.66,191.33,421.99,5.845,86.88402740388618,796.875,814.3717447916666,0.07198059875565237,0.17714153455327433,0.3320548398482796,63.500239530993504,0.19038427748780298,64.00781202322104,0.115625,56,0.193571125,0.0009722458070750454,-8.325946268974168e-07,37.21833333333333,0.017336538165260113,1.4895837374086563e-05,73.02766666666666,0.4284599034785981,1.6899999999999977,0.0003528125957065409
S059,13211.0,13240.984375,N2,0.43495312500000005,93.30771654125738,-187.81,204.89,392.7,7.865,56.54274327905385,828.125,838.8590494791666,0.0,0.11599041357658253,0.23472196540091145,63.474089464422,0.13057563280844023,64.00781202322104,0.05416666666666667,36,0.19290927500000002,0.000879700317935037,-3.750150756876846e-07,37.22233333333334,0.012023125864579397,-6.597224011832703e-07,73.26,0.5060566503202325,1.3800000000000097,0.0002298611734649449
S059,13241.0,13270.984375,N1,0.10792187500000061,102.7549885153805,-330.63,228.63,559.26,8.795,90.20412978553138,796.875,764.404296875,0.0,0.13615185047912087,0.26057495189590946,63.46277490638612,0.14844027317003486,64.00781202322104,0.051041666666666666,31,0.19264240000000002,0.0008334707493367748,1.223177415141447e-07,37.215,0.011180339887497465,1.6319448871376751e-06,73.02566666666665,0.28412067076430036,1.0900000000000034,-0.00019996533202184635
S059,13271.0,13300.984375,N1,0.3097864583333336,88.72554389747248,-213.6,189.21,402.81,4.915,60.98346280976207,750.0,747.4853515625,0.0,0.06441510347391793,0.10152910775842672,63.455287218896984,0.060060807692541233,64.00781202322104,0.010416666666666666,10,0.19295197500000003,0.0009894406371152372,-2.4658144709783266e-07,37.23533333333333,0.012578641509409818,3.333334237557649e-06,73.34566666666666,0.7893486062711607,2.3300000000000125,0.0014007295466388757
S059,13301.0,13330.984375,N1,-0.6842135416666667,83.54059300103643,-166.85,178.29,345.14,4.48,57.19729887921012,781.25,778.1901041666666,0.0,0.12401959270615269,0.1561249499599599,63.45988077237468,0.09569407499314841,64.00781202322104,0.025,20,0.19267444166666667,0.0010414605433063206,-3.1549422620828715e-07,37.24333333333334,0.01074967699773308,-5.694445989162671e-06,75.94666666666667,0.5991679415841797,2.3300000000000125,0.0010461113948869896
S059,13331.0,13360.984375,N2,0.4135208333333332,101.83888196251256,-286.09,244.26,530.3499999999999,5.71,78.91627920472558,828.125,837.7115885416666,0.09090593428863095,0.18356696760915953,0.42050188061080324,63.55200112317933,0.24028435809272963,64.32728814430156,0.19479166666666667,85,0.19274915833333334,0.0009497471856221677,-1.362233442446143e-07,37.25733333333333,0.013148721948878814,1.8750005086260177e-06,76.51500000000001,0.7108105701708899,2.049999999999997,-0.0012219794981498193
S059,13361.0,13390.984375,N2,-0.010479166666667084,113.56808454888959,-350.8,318.57,669.37,4.27,68.60751211668845,812.5,841.064453125,0.1821904480893551,0.2060684175421681,0.43420885111762625,63.55799149090741,0.26309245853686664,64.57553716385176,0.21875,114,0.19257835000000004,0.0009449636381893254,-3.1079826139275864e-07,37.26866666666667,0.012578641509408763,4.722223503206614e-06,74.03099999999999,0.952797110267098,3.510000000000005,-0.0015232990243324164
S059,13391.0,13420.984375,N2,0.8087604166666662,98.29912271048472,-180.95,182.9,363.85,4.779999999999999,61.622249634748826,812.5,814.0869140625,0.07880950133074055,0.04559597630883184,0.41894688572127553,63.57183230500779,0.23990425305141538,64.00781202322104,0.22395833333333334,121,0.19210865000000002,0.0008590556603038042,-2.1127609897897723e-07,37.263333333333335,0.01192569587999968,5.555557062598218e-07,72.58400000000002,0.43823585734928894,1.4500000000000028,0.00042666678240743807
S059,13421.0,13450.984375,N2,-1.1332656249999995,98.76117355199331,-222.4,235.42,457.82,3.73,89.83094902802365,828.125,839.1682942708334,0.17950549357115014,0.15743991358257564,0.4714045207910316,63.6065143576576,0.2938218322303727,64.32728814430156,0.3072916666666667,149,0.19198055833333336,0.0009526292020493746,2.1738482459440845e-07,37.26466666666667,0.012578641509410295,-1.2500003390847598e-06,72.36566666666666,0.5689093854814568,1.8199999999999932,0.00014239587196068535
S059,13451.0,13480.984375,N2,0.37863541666666667,93.61840900483325,-209.95,203.23,413.17999999999995,5.645,39.457837485367094,765.625,765.9586588541666,0.139283726964862,0.06441510347391793,0.4459878528957438,63.586935876372046,0.26520907629264645,64.00781202322104,0.2625,124,0.19268510000000003,0.0008709125329216507,2.5241933930646215e-07,37.27133333333333,0.010241527663824255,5.972223842291496e-06,73.66566666666667,0.7134548961839771,2.1200000000000045,0.001153785035206445
S059,13481.0,13510.984375,N2,-1.221833333333333,97.12388999512284,-193.49,207.43,400.92,1.95,90.90685477721655,828.125,838.1591796875,0.15925921720229852,0.16409473889596013,0.4698136081350655,63.6070003683577,0.28233397435516433,64.57553716385176,0.29583333333333334,124,0.19256767500000002,0.0009281112914812566,-3.4610360951161396e-07,37.279333333333334,0.009977753031395193,-1.80555604534362e-06,75.96499999999999,0.5056925943693447,1.5999999999999943,0.0007596877060784768
S059,13511.0,13540.984375,N2,2.097880208333333,102.77691419929576,-196.91,209.36,406.27,7.8950000000000005,65.08308120056758,781.25,783.1787109375,0.1356408400888169,0.09636964965693294,0.4659918856589672,63.61108497795815,0.2770251378221456,64.00781202322104,0.30520833333333336,132,0.19227945833333335,0.0009234710146672506,-6.17211538957125e-08,37.27066666666666,0.013148721948877302,-7.01389079152862e-06,75.31099999999999,0.436160138786968,1.5900000000000034,-0.0006832293520044909
S059,13541.0,13570.984375,N1,-0.6251406249999998,95.97189380653879,-194.65,192.23,386.88,6.12,78.30350658021001,875.0,873.4293619791666,0.23825719937822562,0.14064814624326435,0.48131312717283004,63.60684738066869,0.29792273996038565,64.32728814430156,0.3145833333333333,137,0.1915536416666667,0.0010568145595438662,-6.659096858478981e-07,37.26933333333333,0.012092238098144569,2.4305562148851984e-06,74.03933333333335,0.8533070308446352,2.3499999999999943,-0.0012859725710646073
S059,13571.0,13600.984375,N1,0.2854374999999995,99.546488520106,-212.15,219.04,431.19,4.4,72.41795885566901,765.625,794.775390625,0.27161545721335933,0.04559597630883184,0.499995659703384,63.668488701285014,0.3316697569482289,64.00781202322104,0.4479166666666667,161,0.19174579166666667,0.0011762133940165355,9.455282512826231e-07,37.26066666666666,0.011234866364236283,9.722224859541825e-07,73.451,0.36461257977932277,1.230000000000004,0.0006062154422242407
S059,13601.0,13630.984375,N2,-1.2510677083333328,105.37400047645568,-261.08,280.41,541.49,3.3600000000000003,73.22980038480368,828.125,814.990234375,0.2929269646127209,0.08507936450096985,0.49932137105998403,63.640125317371215,0.3260745149290932,64.00781202322104,0.39895833333333336,153,0.19200190000000006,0.0009266982194868003,8.006252171834932e-08,37.26866666666667,0.015434449203720096,7.500002034505402e-06,73.58500000000001,0.763761524735743,2.0799999999999983,0.0011210072485371228
S059,13631.0,13660.984375,N2,1.2847916666666672,106.2913096217298,-326.56,205.78,532.34,10.36,65.52353336368706,781.25,782.1126302083334,0.24206145913796356,0.1532312556508408,0.4838527650679377,63.604606505776275,0.3025413118229774,64.32728814430156,0.321875,151,0.19214068333333334,0.0008827795023233307,1.0838110578914529e-08,37.272666666666666,0.012364824660660214,4.1666677969464695e-06,74.16833333333334,0.5413568344652374,1.4500000000000028,-0.0006894099092366302
S059,13661.0,13690.984375,N2,0.7972083333333335,103.0433068823408,-199.94,188.1,388.03999999999996,7.43,52.39020922226242,843.75,849.8697916666666,0.20453835214941965,0.194978186101819,0.4928294424798503,63.63673804693816,0.29571226787338195,64.00781202322104,0.35520833333333335,139,0.1926851,0.0010023137183536933,-7.539220795144555e-07,37.282666666666664,0.010934146311236348,8.125002204047006e-06,74.53966666666666,0.5552505940764254,1.4500000000000028,-0.0008557293987981236
S059,13691.0,13720.984375,W,-1.9114322916666668,119.77847486254139,-352.23,321.03,673.26,1.725,70.05200344681468,796.875,800.4150390625,0.26506476868347145,0.21578094200034337,0.5020779304688555,63.65565361024898,0.3169728463569314,64.57553716385176,0.4041666666666667,149,0.19265308333333336,0.0009132304253156637,4.056133912796756e-07,37.298,0.01222020185321632,2.9166674578634615e-06,74.06700000000001,0.38050098554405926,1.3500000000000085,-6.90625187344093e-05
S059,13721.0,13750.984375,W,1.2905624999999998,108.22020885866355,-424.13,214.29,638.42,8.0,70.8842898318278,859.375,837.01171875,0.29292696461272083,0.2214123697989794,0.4986788100125726,63.679939674083,0.33799621075082387,64.66065264130884,0.0020833333333333333,2,0.19236485833333336,0.0010056955412038125,-9.212491648353883e-07,37.29533333333334,0.014544949486181163,-5.555557062594021e-07,73.47933333333334,0.22492863065623456,0.9899999999999949,0.00016506948922240787
S059,13751.0,13780.984375,N2,-0.17664062500000016,109.10515025756123,-240.08,215.93,456.01,3.24,70.84720700098937,812.5,818.7825520833334,0.3580894882528978,0.18325933639244688,0.4801213315981238,63.68315814555205,0.3523047098851493,64.32728814430156,0.0010416666666666667,1,0.19229012500000003,0.0009722458070750454,-6.810874243401236e-08,37.297333333333334,0.010934146311238933,-5.486112599315429e-06,74.07966666666667,0.48600057155887827,1.480000000000004,-0.0004089931665020524
S059,13781.0,13810.984375,N2,-0.34000520833333375,104.6194218950584,-239.17,241.94,481.11,7.6899999999999995,73.18204815404394,828.125,834.9446614583334,0.4030913530316532,0.2277513111317303,0.4558598027049788,63.67601142180532,0.3749258728303976,64.57553716385176,0.0010416666666666667,1,0.19222607500000002,0.0008295649578996237,-1.1314391090058377e-07,37.29466666666667,0.013349989596334004,-6.250001695420467e-07,74.03299999999999,0.5350585637728525,1.5700000000000074,0.0005955209948787435
S059,13811.0,13840.984375,N2,0.5028385416666665,103.0116359397031,-231.62,227.77,459.39,6.275,104.25318748709807,828.125,840.5436197916666,0.3068216744797466,0.232399078305449,0.46351240544347894,63.735909738429385,0.3266901918466395,64.00781202322104,0.0,0,0.19172439166666672,0.0009351704238251058,-3.667470612920642e-08,37.29333333333334,0.01043498389499959,-3.541667627404916e-06,73.56866666666669,0.6354302129703588,2.25,-0.00021083339052555136
S059,13841.0,13870.984375,N2,0.14672395833333313,101.21310261670078,-192.25,221.03,413.28,2.715,75.95035479060007,812.5,817.6676432291666,0.25124473114984036,0.26339134382131846,0.47729594061814057,63.73760936106488,0.31699569338877875,64.00781202322104,0.0,0,0.20496015833333334,0.010728055239259224,1.5527836460459113e-05,37.287333333333336,0.01611072796479244,1.611111548153104e-05,72.532,0.4745903496701126,1.3999999999999915,-0.0003879862163591077
S059,13871.0,13900.984375,N2,-0.34368229166666614,88.44512189907826,-188.11,172.37,360.48,7.0600000000000005,76.11206140721598,843.75,829.6223958333334,0.11557806855349137,0.32425127430572864,0.4958114490968875,63.71921190555922,0.2932447233482004,64.32728814430156,0.0010416666666666667,1,0.21120448333333333,0.0023893127811964914,-1.4378042094738014e-06,37.29866666666667,0.011175369742827946,3.958334407100264e-06,72.01166666666668,0.6891399632069584,2.269999999999996,-0.00011711808732587021
S059,13901.0,13930.984375,N1,-1.395140625,88.78461439701171,-176.0,187.62,363.62,1.41,71.76680783820305,828.125,831.982421875,0.17116012950028855,0.3640755392276291,0.48218141288373567,63.73178365395299,0.2964410324669621,64.00781202322104,0.0,0,0.2123144583333333,0.00146044507426009,-4.556140558848893e-07,37.29466666666667,0.015216949614017346,3.1250008477101854e-06,72.84166666666667,0.4657258373287388,1.2999999999999972,0.00026239590451277616
S059,13931.0,13960.984375,N1,0.6589635416666667,90.63145421452938,-292.33,208.37,500.7,7.68,81.39579562637164,859.375,849.1780598958334,0.3468546665712056,0.34600899153377823,0.5569011482201207,63.637298163584774,0.3852909364029848,65.90902821313632,0.007291666666666667,6,0.20964608333333334,0.0015958298185339934,-2.2092150090101547e-06,37.29333333333334,0.01273664878302879,-1.145833644160663e-05,72.93066666666667,0.5443769119114271,1.8699999999999903,7.902779921544034e-05
S059,13961.0,13990.984375,N1,0.8150781249999998,91.19441185076198,-199.06,185.71,384.77,4.9,77.09221316216629,843.75,826.7578125,0.3852251776558744,0.21358993356949718,0.41661327782955854,63.73243206167168,0.35210581421431386,64.00781202322104,0.0,0,0.2070206,0.001181682736609111,-1.142400483507055e-07,37.28933333333334,0.01314872194887658,5.625001525879039e-06,71.69633333333334,0.5169621735571069,1.5600000000000023,-0.0005837154361207229
S059,13991.0,14020.984375,N1,1.7063697916666662,105.73349308372524,-434.57,396.79,831.36,9.295,70.00260053072928,812.5,825.927734375,1.0204080746882047,1.2794410502409506,0.6430307133130492,63.715107910837,0.48907113701693705,66.34756966159348,0.020833333333333332,13,0.2059210833333333,0.0018762672410193068,1.5706462593983927e-06,37.29333333333334,0.011642832797715717,1.1805558758019927e-06,72.749,0.3668819065221585,1.480000000000004,0.00042260428130541595
S059,14021.0,14050.984375,N1,-1.7971458333333337,107.53871353532597,-272.5,342.63,615.13,5.73,78.37740961792088,828.125,827.5797526041666,0.3410547747430022,0.3094837070518504,0.181381657163991,63.64726624856999,0.2895382824002357,64.32728814430156,0.020833333333333332,16,0.20673240000000004,0.0010113682267107237,-4.5869153067803794e-07,37.30266666666667,0.014126413400278346,3.958334407099845e-06,72.35566666666666,0.16987609863924139,0.7800000000000011,-0.00017711810360191774
S059,14051.0,14080.984375,N2,-0.5782239583333328,104.04168369337324,-216.61,201.77,418.38,6.595000000000001,73.42741155206036,812.5,818.1477864583334,0.46759116015548835,0.48858053327982687,0.3944259519823996,63.506310543320474,0.4051495715672751,64.32728814430156,0.084375,61,0.2112152416666667,0.0033782587304602035,5.318450878486029e-06,37.308,0.0119443152447794,6.319446158703237e-06,70.95733333333332,0.6015975029499019,1.8300000000000125,-0.0005569445955253376
S059,14081.0,14110.984375,N1,0.5293229166666674,104.97537483143316,-261.91,248.51,510.42,9.525,91.52400988912986,843.75,823.2828776041666,0.4999305507323548,0.4547194170737477,0.4944999139843763,63.37401349424234,0.427001520202568,64.32728814430156,0.12916666666666668,102,0.21416120000000002,0.001187950529272993,-3.341498302272739e-07,37.30533333333333,0.015216949614017844,1.3541670340079889e-05,72.40866666666668,0.8310464621320666,2.780000000000001,0.0005523612609486918
S059,14111.0,14140.984375,N1,-0.7685052083333335,108.08195934396352,-293.94,221.98,515.92,5.38,83.99184989685911,812.5,809.5784505208334,0.499816589624523,0.40385377708260806,0.48619840486049404,63.358141158505184,0.4355444167117249,64.32728814430156,0.146875,110,0.21298694999999998,0.0012722522145785392,-1.2059417333826285e-06,37.30266666666667,0.013148721948877829,-2.8472229945799785e-06,74.58733333333333,0.5391285148789268,1.4100000000000108,0.0008490974525546482
S059,14141.0,14170.984375,N1,0.6973958333333331,109.41605246189116,-251.2,209.87,461.07,10.16,87.96189985599528,859.375,870.4833984375,0.4999826385874701,0.3508360550171547,0.49932137105998403,63.381769506374134,0.44749589293416964,64.32728814430156,0.196875,137,0.21146043333333334,0.0009499315478262428,-4.3395367674524795e-07,37.29866666666667,0.011175369742827946,-3.6805565539711176e-06,74.54833333333335,0.5380649485785968,2.1200000000000045,-0.000833368281621169
S059,14171.0,14200.984375,N1,-1.109390625,104.1812194972335,-229.19,193.89,423.08,7.55,94.67149285150164,875.0,849.7965494791666,0.4999609359740019,0.38877338934640177,0.49734974699232865,63.372076145153976,0.4278902345285435,64.32728814430156,0.16145833333333334,119,0.20987034999999998,0.002271039202839384,1.5948988701440088e-06,37.304,0.01380821011813889,1.1041669661912687e-05,71.78333333333333,0.4806823853185751,2.1599999999999966,-0.0005192362519629585
S059,14201.0,14230.984375,N1,-0.04154166666666678,111.7017144010031,-254.88,228.01,482.89,7.050000000000001,81.98844963746797,796.875,818.5221354166666,0.4354116825871044,0.4979896651510172,0.49859176687947826,63.31079211357504,0.4118781595925383,64.32728814430156,0.18541666666666667,130,0.21438533333333337,0.0017891887422951044,-2.3375379604866345e-06,37.31466666666667,0.00845905169363133,4.930556893053732e-06,70.86699999999999,0.6765064670792151,2.0,0.0011023961323774238
S059,14231.0,14260.984375,N1,1.6113593750000004,106.72681753584328,-250.74,231.98,482.72,8.27,86.30963717767946,828.125,825.2522786458334,0.41758232721225164,0.48880589869315433,0.4981737481374679,63.2972396125289,0.403215121369112,64.32728814430156,0.18958333333333333,117,0.21339260000000002,0.0011019578667081573,-5.1707045276433516e-08,37.318,0.012220201853214227,5.000001356336425e-06,72.36333333333332,0.26079792091877496,1.0,0.00012847225707255275
