participant_id,window_start_time,window_end_time,sleep_stage,BVP_mean,BVP_std,BVP_min,BVP_max,BVP_range,BVP_median,SDNN,median_nni,IBI_mean,x_std,y_std,z_std,mag_mean,mag_std,mag_max,movement_density,burst_count,EDA_mean,EDA_std,EDA_trend,TEMP_mean,TEMP_std,TEMP_slope,HR_mean,HR_std,HR_range,HR_trend
S063,7857.0,7886.984375,W,0.123359375,8.239179085069678,-23.15,16.66,39.81,1.93,59.579541545872765,906.25,902.9459635416666,0.6337580812546342,0.44122914650125084,0.8013924242893323,66.36002179608708,0.3631559208487908,67.42403132415029,0.15520833333333334,99,0.5042227416666667,0.002271565827411529,-2.8294810192819405e-06,34.48366666666667,0.011100550536898651,-2.4652784465277285e-06,69.40166666666667,0.5318902351258418,1.8800000000000097,-0.0007784377111647444
S063,7887.0,7916.984375,W,-0.1061197916666667,8.734826504205257,-24.69,15.79,40.480000000000004,1.94,47.58624718290664,859.375,849.1536458333334,0.47177151183067423,0.3465542185414699,0.4952804603202109,66.2453904185997,0.26676760291790497,67.15653356152326,0.11458333333333333,81,0.4989273166666666,0.0021649433902658105,-1.8315994551864972e-06,34.464666666666666,0.013597385369579818,-9.027780226718249e-06,68.15266666666666,0.2075882677053047,0.6600000000000108,0.00036402787652666034
S063,7917.0,7946.984375,W,0.033734375000000004,7.656719615683557,-17.26,12.58,29.840000000000003,1.49,21.242197075167017,796.875,800.4475911458334,0.42715446562104437,0.28135800395383975,0.5598461702780506,66.29274840797528,0.31233024758546485,67.15653356152326,0.215625,107,0.4951798083333333,0.001977942711909835,-1.5233652135864835e-06,34.443333333333335,0.01299572579307919,-6.388890621986474e-06,69.89100000000002,1.2323212514059263,3.6299999999999955,0.0021735769785093807
S063,7947.0,7976.984375,W,0.050395833333333355,7.682014841876835,-17.0,13.13,30.130000000000003,1.915,26.282444789044757,796.875,792.8629557291666,0.43581022883309606,0.1850505514642478,0.5203998195831954,66.26459538135566,0.3066332421933529,67.49814812274482,0.17083333333333334,91,0.4917846583333334,0.002252767477629213,-2.8118482019987515e-06,34.42066666666666,0.014360439485692739,-1.180555875801832e-05,73.378,0.6782054752555954,2.3299999999999983,0.0012177781081212334
S063,7977.0,8006.984375,W,0.07666666666666659,7.3674092315224495,-17.66,13.68,31.34,1.62,46.452597790078116,765.625,759.9527994791666,1.057461501137932,0.8685869901023155,0.9639998910428133,66.26027076177381,0.4580959612961449,68.30080526611674,0.051041666666666666,30,0.48722575,0.002025093081194044,-1.6830859600385077e-06,34.39666666666666,0.015776212754931775,-1.1388891978322282e-05,76.00266666666667,0.782687393251965,2.269999999999996,0.0013929864889828808
S063,8007.0,8036.984375,W,-0.14569791666666668,7.302101112607636,-17.68,12.16,29.84,1.3250000000000002,27.717662904168776,796.875,799.3733723958334,0.5159773627678726,0.19598564555571124,0.43857011982122085,66.2708585601603,0.38102585112831205,67.29784543356496,0.37604166666666666,140,0.4836385416666666,0.0019341828330323974,-4.059504139405461e-07,34.36466666666667,0.01910206504252427,-9.583335932979228e-06,76.81333333333333,0.12760181120275066,0.3400000000000034,-0.00020381949973402298
S063,8037.0,8066.984375,W,1.9959687500000003,48.94825355242367,-284.79,466.86,751.6500000000001,1.47,31.708167763677515,765.625,768.6116536458334,13.721993217942643,14.558714301385786,11.687570558313457,66.30485712960744,4.5581068097415836,142.57980221616245,0.026041666666666668,10,0.4833822833333334,0.008832909735928223,7.879537727739184e-07,34.334666666666664,0.012840906856172077,-1.104166966191133e-05,76.64033333333333,0.32470995604624714,0.8299999999999983,-0.0005069793041936049
S063,8067.0,8096.984375,W,-1.5374010416666668,99.36006058913544,-508.17,333.77,841.94,-0.325,0.0,859.375,859.375,28.35754769135914,24.737929769300287,19.134823071903632,65.70664552234128,8.578331764862856,161.84251604569178,0.071875,35,0.5408960333333334,0.025138414215079053,2.3302702501818166e-05,34.305,0.01522060007577505,-1.9270838560883414e-05,78.89466666666667,1.2065784498140004,3.680000000000007,0.002008889433835024
S063,8097.0,8126.984375,W,-0.30100520833333344,10.636205046521036,-80.57,19.45,100.02,1.975,30.561188457962615,843.75,834.3098958333334,0.3763848849213026,0.12401959270615269,0.4990866223384697,65.73150619710194,0.358424413718605,66.24952830020754,0.31145833333333334,172,0.5515572916666667,0.0017075305677880306,-2.01386100636419e-06,34.26200000000001,0.01904380914278157,-2.8888896725504925e-05,78.25366666666666,0.7722844179589691,2.680000000000007,-0.001374618428444671
S063,8127.0,8156.984375,W,-0.21401041666666687,57.832973628443355,-386.66,301.38,688.04,1.32,72.2525145405887,750.0,720.5647786458334,20.790392308140525,25.360698260813756,21.332039247045746,66.0094210608974,6.675286975490707,111.40017953306898,0.08125,31,0.5622978,0.04013278349421248,2.37812464684371e-05,34.235666666666674,0.015849991237292502,-1.1215280820117965e-05,74.86366666666666,0.8077767155731992,2.719999999999999,-0.0010151738864946553
S063,8157.0,8186.984375,W,0.06137500000000082,78.12956611913023,-282.62,435.19,717.81,-0.77,71.19587699760949,625.0,682.470703125,15.978044289134873,13.333770785467065,17.62473588750103,66.18905596705399,6.32715011071544,109.40749517286281,0.07083333333333333,27,0.5459094083333333,0.00641188444933291,-5.504886692948855e-06,34.163999999999994,0.031580584752871975,-4.993056910008844e-05,76.20566666666669,0.5219813747209335,2.010000000000005,0.0008776044047320975
S063,8187.0,8216.984375,W,0.034072916666666765,8.800824439061556,-20.04,15.55,35.59,1.7349999999999999,33.80921240160424,765.625,761.0921223958334,0.5055411275032153,0.35997685110758626,0.49881695979086355,65.96102258910716,0.32557487509515226,66.30987860040162,0.27708333333333335,156,0.5352435666666667,0.0025286921413164415,-3.898639946462646e-06,34.09666666666667,0.026499475885802596,-4.222223367573604e-05,78.39266666666667,0.3523155151596678,1.2999999999999972,0.00022631950583753988
S063,8217.0,8246.984375,W,-1.1991302083333328,37.112589762490025,-303.7,210.18,513.88,1.76,21.96662725928423,750.0,764.8111979166666,15.296956254749578,20.45795227814677,19.889699070706524,65.92011779714605,4.403898228886189,98.49873095629202,0.065625,29,0.5310903666666668,0.00612008219026146,1.7027782396869464e-08,34.031,0.023430749027719307,-3.163195302515971e-05,78.64100000000002,0.3304678501760814,0.8700000000000045,0.0005098265271881882
S063,8247.0,8276.984375,W,1.3424322916666667,39.40209598341236,-264.75,225.46,490.21000000000004,1.585,50.81629139132008,812.5,793.7662760416666,1.9189795827180887,1.520228190108314,3.670697949641185,66.30002571060659,0.9597781546998304,81.04936767180853,0.019791666666666666,9,0.5178729750000001,0.0034157433487273328,-5.308954348132156e-06,33.99733333333334,0.008919392106839587,5.2777792094666075e-06,82.73766666666666,3.1797543755593587,8.700000000000003,0.005611633466697445
S063,8277.0,8306.984375,W,-0.18175,6.861132920905507,-15.67,10.34,26.009999999999998,1.4449999999999998,28.110962178368094,796.875,791.2434895833334,0.4994745502914926,0.47889031886226313,0.3977148266450891,66.16666834571306,0.3914716189117683,66.71581521648372,0.29270833333333335,110,0.5109011666666666,0.0017088764990159247,-2.1015457089696582e-06,33.99,0.01807392228230109,-1.8333338306569613e-05,85.78633333333333,0.4453648940912243,1.4499999999999886,-0.0007029515795767058
S063,8307.0,8336.984375,W,-0.014614583333333365,7.246908691340098,-15.28,11.25,26.53,1.53,35.21711097114456,796.875,790.7470703125,0.47761978573151903,0.37638056058846725,0.4457359706772111,66.15700601355903,0.3454060247254693,66.71581521648372,0.2604166666666667,119,0.5074421333333333,0.0013224908754148473,-9.853123332552903e-07,33.98066666666667,0.01388844443733357,7.638890961070148e-07,80.19,3.655878371426855,10.400000000000006,-0.0065161128787198565
S063,8337.0,8366.984375,W,0.051364583333333366,8.145952881415756,-17.17,12.4,29.57,2.04,23.085595774035383,750.0,745.1009114583334,0.4535689874637472,0.3094837070518504,0.401364858950058,66.17913942784716,0.35302916248756716,66.71581521648372,0.29791666666666666,144,0.504879525,0.0018927166981286322,-2.2621839903927767e-06,33.98966666666667,0.011100550536897706,8.020835509124446e-06,76.86433333333333,0.7310297911546124,2.410000000000011,0.001315104523411601
S063,8367.0,8396.984375,W,0.048015624999999965,8.177123276108324,-21.08,12.38,33.46,2.125,31.70583674042486,750.0,742.9280598958334,0.46679685683984157,0.2293465203330735,0.49730065625166164,66.21853860017127,0.3384090093789475,66.91786009728644,0.3385416666666667,161,0.501858175,0.0012915867738464433,-3.1330021519646227e-07,34.00466666666667,0.019787762772873824,2.6319451584051654e-05,79.55033333333334,0.8822300657361948,2.6300000000000097,0.0015760768164270898
S063,8397.0,8426.984375,W,-0.20456249999999956,78.44822792849494,-324.44,314.77,639.21,-0.05,17.707734939338167,828.125,819.5963541666666,46.2964233510988,24.38901571315655,19.45114938651691,65.74959823024184,6.966341643582463,105.04284840006957,0.08958333333333333,29,0.5085203,0.009351115201407802,6.610844675250837e-06,34.029666666666664,0.01870531712879677,-1.7743060368668173e-05,81.097,0.743088823762003,2.799999999999997,0.0010861461279693242
S063,8427.0,8456.984375,W,-0.35747916666666674,12.15309247765355,-59.47,46.33,105.8,2.265,35.379561453299,765.625,772.7132161458334,1.5232230084046567,1.2049359566890774,2.957135724431385,66.72789987922746,0.22098878054801538,68.1615727518079,0.04583333333333333,33,0.5045912666666666,0.0021425766253638442,-2.761754655423884e-06,34.03966666666666,0.020893911925619468,2.3506950821111415e-05,82.69466666666668,0.6191323678252416,1.8100000000000023,-0.0010532641746050845
S063,8457.0,8486.984375,W,0.5380677083333333,12.835763354848265,-40.23,82.58,122.81,2.19,31.15264881799153,765.625,758.9274088541666,0.1825622991078814,0.6989544522992102,0.8614873030195447,66.57608127628626,0.2358182068019377,67.38694235532579,0.13854166666666667,64,0.5040149,0.00811679173421782,8.231677146179784e-06,34.071333333333335,0.017838784213681808,1.5972226554968788e-05,81.81199999999998,1.0098461929092646,3.660000000000011,-0.0014562503950332035
S063,8487.0,8516.984375,W,-0.007526041666666646,11.834240935309152,-27.58,19.91,47.489999999999995,2.53,19.62582725892494,734.375,731.4371744791666,0.12801909579781012,0.48812282152024905,0.6020716189748526,66.57841845856659,0.21560895776184152,67.14908785679818,0.12604166666666666,74,0.9312329583333334,0.47943135013895016,0.0007812336448658975,34.098666666666674,0.01839081896551143,2.4791673391838117e-05,79.34266666666666,0.5758583930871277,1.8799999999999955,0.0009985419375385038
S063,8517.0,8546.984375,W,0.04647395833333337,15.40234276397956,-33.35,23.41,56.760000000000005,3.005,21.175084858053378,734.375,732.4625651041666,0.1529193630552463,0.4955356249106168,0.5911639589732182,66.60891898439634,0.22554392799955034,67.14908785679818,0.17083333333333334,78,2.938005508333333,0.24769409446149487,0.0003082280807910375,34.13966666666666,0.01448754254139906,1.711806019912457e-05,80.96700000000001,0.4575525470733748,1.5499999999999972,0.0008171182772130734
S063,8547.0,8576.984375,W,-0.11025000000000008,15.494909370365267,-32.4,24.71,57.11,3.05,22.10710098200422,718.75,724.658203125,0.13591255358583407,0.49705731281434967,0.5663870327199708,66.59975685511817,0.2128462022335998,67.21606950722423,0.146875,78,3.3203299250000002,0.14949779503748334,9.729873950161114e-06,34.17766666666667,0.022903177848403084,3.1493064098596885e-05,82.08366666666667,0.12059528275277587,0.3999999999999915,0.0002164236698197868
S063,8577.0,8606.984375,W,-0.0038750000000000286,16.03096547781953,-34.61,26.41,61.019999999999996,3.16,26.37526274676269,718.75,715.7633463541666,0.03225804701500421,0.49495720914932523,0.49649815373943407,66.54696389526121,0.17833859967141824,67.60917097554147,0.34791666666666665,173,3.3073817916666663,0.21918328553172478,-0.00025842284462425255,34.25466666666667,0.025655841873192628,4.284723384528006e-05,82.61666666666666,0.2473234499373019,0.75,0.0004361112294138539
S063,8607.0,8636.984375,W,-0.005390624999999879,14.932572107418247,-33.13,23.22,56.35,2.93,15.764218110816637,718.75,723.7630208333334,0.06451609403000842,0.47761978573151903,0.5020692857647572,66.51909133181665,0.1740116550722258,67.21606950722423,0.2625,153,2.90333105,0.11740443135069832,-0.00012782914144670725,34.343666666666664,0.03156826817479067,5.2395847546615005e-05,83.42533333333334,0.1614668868702034,0.5300000000000011,0.0001398611490508753
S063,8637.0,8666.984375,W,0.05511979166666677,14.961853852875873,-32.09,22.07,54.160000000000004,3.315,29.684839631390048,718.75,726.4892578125,0.03225804701500421,0.4422166387140533,0.48336476190921857,66.49243913835784,0.16556700087502677,66.94027188471824,0.190625,136,2.44917145,0.15802995223089036,-0.0002817386519473339,34.43333333333332,0.02637338725980465,3.9513899607722855e-05,82.78933333333335,0.19805610877279736,0.7800000000000011,-0.0003340973128519179
S063,8667.0,8696.984375,W,0.13887500000000005,14.98528312020525,-30.33,22.43,52.76,3.1550000000000002,15.468472479354807,734.375,729.8746744791666,0.032258047015004204,0.42555111326373,0.5082479436478048,66.48027718441617,0.17331228998768414,67.60917097554147,0.1625,120,2.0337840083333334,0.09213317486040663,-0.0001657456172270012,34.53433333333334,0.03221628297753929,5.156251398722646e-05,82.20633333333332,0.10656714106869819,0.36000000000001364,-0.00018843755111695918
S063,8697.0,8726.984375,W,-0.019151041666666598,15.963883480835307,-33.67,27.0,60.67,3.24,31.05222957542096,718.75,728.8981119791666,0.05589199343873463,0.37727176461405115,0.5047936442388008,66.50290027646993,0.18451689505679664,67.21606950722423,0.19791666666666666,130,1.766160025,0.06351778037584734,-0.00011437174087775092,34.63733333333333,0.029881246441351855,4.944445785710956e-05,82.13033333333333,0.09830168982383944,0.29999999999999716,-8.56597454589144e-05
S063,8727.0,8756.984375,W,-0.02047916666666678,15.443413805850462,-33.96,23.91,57.870000000000005,3.165,12.922551855021492,734.375,737.060546875,0.05589199343873464,0.3476343040826092,0.5458561938597015,66.52991369102142,0.20093763188202612,67.3349834781297,0.25104166666666666,140,1.5802292166666665,0.04609717779651003,-8.306545612669709e-05,34.72266666666667,0.025289435651187707,3.5972231980314367e-05,81.734,0.18146808718523202,0.519999999999996,-0.0003234028655064209
S063,8757.0,8786.984375,W,-0.08515104166666668,13.813710617312536,-30.14,19.54,49.68,3.115,30.053303262421355,750.0,755.7047526041666,0.08523227047636099,0.37996710383926663,0.5338528963399519,66.5467944420316,0.2020300884985534,67.3349834781297,0.19375,75,1.4478761,0.029577705555705287,-5.2551292467255965e-05,34.785333333333334,0.019102065042525335,2.7152785143441453e-05,80.95766666666665,0.41220288963351853,1.2000000000000028,-0.0007362849219522911
S063,8787.0,8816.984375,W,-0.3668958333333334,26.264419822134204,-175.69,226.48,402.16999999999996,2.82,33.098961494739775,765.625,767.4886067708334,9.285457566658856,13.20122311252509,14.089751372895122,66.59059156522123,3.586053772680113,126.51086909827156,0.04791666666666667,18,1.3523541166666666,0.03562237751942435,-2.3534402217448528e-05,34.83866666666667,0.024594488994261535,3.611112090687948e-05,79.60033333333334,0.3821036799380802,1.3700000000000045,-0.0006875349087280041
S063,8817.0,8846.984375,W,0.4121093749999999,62.22062990696323,-352.21,404.65,756.8599999999999,2.465,47.705575121977525,875.0,835.7747395833334,7.2519387224641525,5.556888555357816,6.70321233108094,66.46545329792394,2.5889945734764774,87.62419757121887,0.046875,15,1.325492125,0.05266431330647641,-9.361655165379546e-05,34.85900000000001,0.019723082923314303,2.1875005933972747e-06,78.611,0.07730243635660357,0.3499999999999943,-8.357641156043891e-05
S063,8847.0,8876.984375,W,-0.09571874999999988,10.888427256919696,-26.07,17.05,43.120000000000005,2.4699999999999998,19.72535384601721,765.625,761.81640625,0.05581428468591172,0.44276470229369264,0.41842208346424015,66.56408924316197,0.14485013531903934,66.94027188471824,0.109375,71,1.1949615666666669,0.028330084491794638,-5.089228680888858e-05,34.862,0.018867962264111613,-6.736112938397155e-06,78.34133333333332,0.12763837806692582,0.4899999999999949,0.00014756948447522948
S063,8877.0,8906.984375,W,-0.015546875000000035,9.926131873583035,-21.91,15.18,37.09,1.97,17.506969214655612,765.625,756.7057291666666,0.22838645595544604,0.4813131271728301,0.4094147563392572,66.63258707586128,0.2508443961862289,66.94027188471824,0.065625,40,1.1129342083333333,0.020029348945108803,-3.589379163785583e-05,34.87166666666666,0.01752775576684556,7.18750194973422e-06,78.66866666666667,0.16889312860175495,0.6299999999999955,5.5416681699406017e-05
S063,8907.0,8936.984375,W,-0.050557291666666754,38.996382206022346,-187.97,176.87,364.84000000000003,-0.125,20.25733695530667,734.375,742.96875,9.637886170026542,10.10196625525062,32.473733359284864,65.40070619883211,4.390416118552094,104.09610943738484,0.06145833333333333,27,1.0677193666666667,0.016566248527721112,-2.4354099922444628e-05,34.861000000000004,0.02736786436680661,-3.6840287771343836e-05,79.51533333333333,0.26482363103687645,0.9500000000000028,0.00042527789314178807
S063,8937.0,8966.984375,W,0.1608802083333332,62.245618795842304,-220.46,294.44,514.9,0.79,9.23059295471719,781.25,781.8603515625,19.077758891746097,13.56842704430389,33.52023228174623,65.50737234901884,4.509342294282222,94.38749917229505,0.075,32,1.0274156749999999,0.017112632688632164,-2.5638278439203152e-05,34.80800000000001,0.013999999999999685,-9.375002543131495e-06,79.67333333333333,0.13712119537920514,0.480000000000004,-8.944446870780825e-05
S063,8967.0,8996.984375,W,-0.0860052083333333,12.184909849976577,-27.4,21.86,49.26,2.02,20.146477208701498,750.0,757.7555338541666,0.436561493377508,0.45259667475579185,0.24944382578492946,65.45136456079125,0.32294550169347735,66.21933252457322,0.013541666666666667,11,0.9760511833333333,0.013310370995319988,-2.3721414854984504e-05,34.80466666666667,0.010241527663825828,-8.194446667332265e-06,78.92800000000001,0.25244669404318587,0.8299999999999983,-0.00036590287703528677
S063,8997.0,9026.984375,W,0.06224999999999996,12.431014428805344,-24.65,18.89,43.54,2.95,15.356371996821984,750.0,752.4820963541666,0.3476343040826092,0.36795317627458474,0.07880950133074055,65.53062618888502,0.28053156556977593,66.21933252457322,0.003125,2,0.9609672833333334,0.011386388857742485,-1.7041416949169094e-05,34.81499999999999,0.013844373104862842,1.1006947430269539e-05,79.06133333333334,0.20079397954675313,0.7800000000000011,0.00027979174256503186
S063,9027.0,9056.984375,W,0.06939583333333335,12.026848079989593,-25.3,18.19,43.49,2.675,16.621337283191057,750.0,756.5104166666666,0.3041220715025465,0.38549970952215606,0.11636400473179938,65.55804521242868,0.2457971897493639,66.21933252457322,0.004166666666666667,4,0.9254309833333333,0.009276752191170622,-1.654358825509665e-05,34.82266666666666,0.010624918300338142,2.777778531298272e-06,79.76133333333333,0.08815642662651074,0.35999999999999943,8.305557808582167e-05
S063,9057.0,9086.984375,W,-0.209828125,62.19930896103972,-288.83,451.9,740.73,-0.795,29.324773997268572,765.625,766.6422526041666,14.109149438334825,13.091321871122615,32.46492738967187,66.37977620398088,5.694597098075667,126.554336156451,0.065625,31,0.9329472166666667,0.058748598437492285,3.638682888097572e-05,34.82366666666667,0.011685698761971399,6.14583500049786e-06,79.12466666666666,0.6268744336432575,2.200000000000003,-0.0010689586233069166
S063,9087.0,9116.984375,W,0.2760729166666668,30.956072223308357,-190.81,182.43,373.24,1.685,26.071199836855637,781.25,785.2457682291666,14.240272020654038,4.431379655484471,16.195367564694404,66.51572732892375,2.15703722057236,82.44392033376384,0.04583333333333333,19,0.9168257583333334,0.016315663280518627,-2.184230952753622e-05,34.84600000000001,0.013564659966248676,5.625001525879163e-06,76.146,0.652424197384902,1.9699999999999989,-0.0011504864232005272
S063,9117.0,9146.984375,W,-0.19088541666666664,5.358385304380788,-14.01,8.71,22.72,0.795,34.58418630597503,750.0,748.0224609375,0.21137108216357317,0.436561493377508,0.382617935250035,66.61303838576873,0.21648791214105484,66.71581521648372,0.0,0,0.8761270250000001,0.00946480710532664,-1.681156771147127e-05,34.854333333333344,0.01646882576937842,-9.687502627901741e-06,75.73766666666667,0.6215876625402272,2.200000000000003,0.000983159988921439
S063,9147.0,9176.984375,W,0.09842708333333337,5.337151620646213,-14.15,12.88,27.03,1.065,24.043404845238875,765.625,762.0279947916666,0.4941322360124531,0.2895739656758221,0.7023946824475222,66.3707370057443,0.47021553319329346,67.91170738539859,0.022916666666666665,15,0.8464784666666667,0.007697437140517756,-1.3535618689132666e-05,34.836,0.011135528725660294,-1.5972226554965263e-06,79.00166666666665,0.7351602244106776,2.230000000000004,0.001300243408269157
S063,9177.0,9206.984375,W,-0.04002083333333333,4.627369730696476,-12.27,9.48,21.75,0.965,26.574732886991868,750.0,749.3733723958334,0.4994256684071104,0.2599996661322642,0.33306629928922893,66.29674103289973,0.4781074669591529,67.00746227100382,0.046875,37,0.8226379666666667,0.007393835064806051,-1.3072644605209572e-05,34.83933333333334,0.011234866364235072,2.0833338984746654e-06,80.01066666666665,0.01651934892448439,0.060000000000002274,2.6388896047334515e-05
S063,9207.0,9236.984375,W,-0.09193750000000002,6.352934984143976,-22.31,92.22,114.53,0.84,24.127604111769063,765.625,754.3212890625,4.702695739915801,5.582873115361141,11.408448988943823,66.26091767685708,3.00054805340102,96.77809669548166,0.042708333333333334,14,0.7979859416666667,0.009856875854190848,-1.5880925531935092e-05,34.826,0.011135528725659613,-6.111112768856464e-06,79.87733333333333,0.07013954345129186,0.29999999999999716,-0.00011930558791927007
S063,9237.0,9266.984375,W,-0.05983854166666672,48.93122293954391,-245.94,290.58,536.52,0.045,36.39716603066949,765.625,783.6344401041666,4.379693786662551,3.6722282631485026,11.674115925366205,66.75443809909999,3.0352433850948395,88.28363381737297,0.03229166666666667,14,0.7546608583333333,0.006156452095560441,-9.075232713550545e-06,34.82333333333333,0.0104349838949977,-4.513890113360235e-06,78.63766666666668,0.49325911603898004,1.9300000000000068,-0.0007931599373806266
S063,9267.0,9296.984375,W,0.1860104166666666,10.592830639551678,-22.3,17.5,39.8,2.58,32.99180544953858,812.5,814.8111979166666,0.4699106002445808,0.49817265908908426,0.43237950914741036,66.43090888123723,0.44367241604160257,67.36467917239716,0.328125,188,0.734727825,0.007110543314523044,-1.2476369920890281e-05,34.815333333333335,0.011469767022722266,-2.3611117516026035e-06,75.87799999999999,0.8356570269354923,2.9200000000000017,-0.0014952781833979436
S063,9297.0,9326.984375,W,-0.12043749999999996,16.72153647857837,-64.02,155.36,219.38,1.32,56.44870500001776,812.5,816.5608723958334,0.512956055555011,1.5027694341522329,1.2206111145879164,66.49895382480466,0.36596703836032374,69.2098258919931,0.1375,63,0.712285925,0.006051473022003953,-1.0366237404035751e-05,34.803333333333335,0.010749676997732492,7.083335254811437e-06,74.38566666666667,0.18514288776209975,0.710000000000008,-0.00024163200999132578
S063,9327.0,9356.984375,W,0.02981770833333335,8.991129130408838,-19.52,14.07,33.59,1.955,20.282650069005193,796.875,794.3603515625,0.07880950133074055,0.4470376549358628,0.20077702789551283,66.41217335247572,0.13030963401116347,67.47592163134935,0.29791666666666666,95,0.6959081333333332,0.004769640807463618,-8.095785182233388e-06,34.80466666666666,0.01146976702272425,5.4166681360323895e-06,74.987,0.24016869071550537,0.8799999999999955,0.00042725706034533995
S063,9357.0,9386.984375,W,0.003708333333333343,8.3461089673031,-18.2,12.75,30.95,1.895,17.027180425604442,781.25,779.1422526041666,0.09636964965693294,0.439992897669951,0.16409473889596016,66.40198318502648,0.13905908382774246,67.47592163134935,0.25416666666666665,69,0.6819113333333333,0.0040565899869499066,-6.859521392014267e-06,34.79200000000001,0.009451631252505591,-4.861112429776465e-07,76.03433333333335,0.2683987497901012,0.9200000000000017,0.00037586815751632205
S063,9387.0,9416.984375,W,0.057822916666666654,8.763081111846915,-19.36,13.99,33.35,2.245,20.84210370152248,781.25,780.9326171875,0.12801909579781012,0.4236075534914362,0.13981246740425785,66.40147253952874,0.1536595225772546,67.47592163134935,0.23125,70,0.6697615083333335,0.004124936767183693,-6.774119242111329e-06,34.78533333333334,0.0123107902084119,-1.1458336441605049e-05,76.55433333333333,0.1788236250859734,0.75,0.0003044792492619491
S063,9417.0,9446.984375,W,-0.012072916666666966,23.22638348890868,-107.85,150.59,258.44,1.51,21.772621908745602,750.0,757.1044921875,19.32178846099908,25.401313583569518,11.948002533475233,66.02187280071392,2.5003790152063927,96.25487000666512,0.03854166666666667,14,0.659074325,0.003823404266624394,-5.3823354444269185e-06,34.775999999999996,0.010519822558704825,2.0833338984697066e-07,77.16066666666667,0.09828303798497089,0.3499999999999943,0.00014541670611347256
S063,9447.0,9476.984375,W,0.10601562500000052,46.70955930568181,-181.08,270.04,451.12,0.04,45.30876334265031,734.375,761.3688151041666,16.60793136822275,9.285621164826113,19.01341996824582,62.92445349797575,3.3787981563104332,84.43340571124678,0.084375,34,0.65955475,0.00775950923732723,-3.4879167447690774e-06,34.78066666666667,0.015260697523012099,5.138890282901344e-06,76.02133333333332,0.3999311051779899,1.6099999999999994,-0.0006517362879058921
S063,9477.0,9506.984375,W,-0.06272916666666688,76.75609734771336,-337.22,328.27,665.49,1.32,15.2818423942741,843.75,837.3372395833334,8.12895096245512,7.206432718484344,16.05634488099642,63.0559408022171,5.192482182344014,102.41581909060729,0.0875,42,0.6649997916666667,0.03013481811650653,1.2970595315374158e-05,34.775999999999996,0.013808210118137827,5.625001525879434e-06,74.13333333333334,0.8073303055269402,2.519999999999996,-0.0013088892439478204
S063,9507.0,9536.984375,W,-0.3853697916666665,45.89726477154262,-196.09,178.72,374.81,-2.48,119.58274618529678,859.375,922.2249348958334,42.42077092127813,5.93858460488482,28.08938669227692,63.78229308923869,3.717123208224506,97.66780431646859,0.078125,36,0.695491775,0.06510079467250028,2.235974109150961e-05,34.79666666666667,0.01299572579307907,1.2777781243973712e-05,74.432,0.3386679790000824,1.0600000000000023,-0.0003278473111564968
S063,9537.0,9566.984375,W,0.35940104166666653,65.60053394651854,-350.87,337.4,688.27,3.495,91.07896040970704,828.125,820.0602213541666,6.173577824166604,6.398290787390019,18.65748469183458,62.707958835961264,2.437002659153154,84.72307831990054,0.053125,27,0.6551133416666667,0.006318110304903714,-6.225951124661214e-06,34.81633333333333,0.012242911781470345,1.1354169746681873e-05,76.52400000000002,1.3316445972305577,4.150000000000006,0.002086736677174662
S063,9567.0,9596.984375,W,-0.07842708333333338,12.731855808074478,-25.29,20.3,45.59,2.58,29.896195572310006,765.625,775.3580729166666,0.12801909579781012,0.0,0.0,62.58464096839293,0.11276017626779423,63.45076831686122,0.016666666666666666,16,0.642782075,0.0031980138997053115,-5.0724317145268405e-06,34.84900000000001,0.015779733838057544,1.434028166782655e-05,77.58266666666667,0.6361966851707291,2.2700000000000102,0.0011073614115021213
S063,9597.0,9626.984375,W,-0.004197916666666682,14.433792871187011,-28.74,22.24,50.98,2.4000000000000004,14.332078257769242,765.625,763.2975260416666,0.09090593428863095,0.0,0.0,62.57730090611778,0.08007062626316323,63.45076831686122,0.008333333333333333,8,0.6367071083333333,0.002559168187764114,-3.54525855719903e-06,34.88133333333333,0.016679994670928698,1.9305560792524708e-05,77.60300000000001,0.5277003568945797,1.8499999999999943,-0.0005550348727850671
S063,9627.0,9656.984375,W,0.10702083333333343,15.564029542625928,-30.51,24.07,54.58,2.87,29.41976810780296,750.0,759.4563802083334,0.09090593428863095,0.0,0.06441510347391793,62.577799869579394,0.08039578887306673,63.45076831686122,0.0125,12,0.6296499999999999,0.0024897624719371573,-2.7947199421440666e-06,34.91199999999999,0.016613247725836236,1.97916720355009e-05,78.61100000000002,0.29737013972488935,0.9699999999999989,0.0005253820869634577
S063,9657.0,9686.984375,W,-0.06764583333333322,16.742443154785764,-32.59,25.83,58.42,2.395,16.11392035966855,765.625,758.6832682291666,0.08507936450096985,0.0,0.03225804701500421,62.576508139198786,0.07502736025618728,63.45076831686122,0.008333333333333333,8,0.6254754666666666,0.002471511632359625,-2.8211704701525943e-06,34.946,0.017435595774163842,1.861111615970066e-05,78.99600000000001,0.020428737928058462,0.060000000000002274,-1.2500003390842617e-05
S063,9687.0,9716.984375,W,0.044203125,17.173348046172894,-35.64,25.73,61.370000000000005,3.21,15.852879205027266,765.625,762.3453776041666,0.08507936450096985,0.0,0.03225804701500421,62.576508139198786,0.07502736025618727,63.45076831686122,0.008333333333333333,8,0.6207138583333334,0.0024670114960407452,-3.211666018789597e-06,34.98033333333334,0.01277584526449189,1.8020838221800134e-05,79.14900000000002,0.05479355193207979,0.20000000000000284,7.315974206807418e-05
S063,9717.0,9746.984375,W,0.03417187499999999,17.329567466761606,-33.72,26.64,60.36,2.7800000000000002,12.797057814347363,765.625,767.3014322916666,0.09090593428863097,0.0,0.0,62.57730090611778,0.08007062626316323,63.45076831686122,0.008333333333333333,8,0.6178951833333334,0.001910792357388845,-1.463243018457867e-06,35.007999999999996,0.01661324772583595,1.902778293939359e-05,79.10533333333333,0.039810663004891146,0.1700000000000017,-1.1041669661913697e-05
S063,9747.0,9776.984375,W,-0.0077031249999999956,17.660372031678207,-33.83,27.17,61.0,2.89,15.061396849050539,765.625,773.3968098958334,0.04559597630883185,0.0,0.04559597630883185,62.57204534114223,0.04051945262988656,63.45076831686122,0.004166666666666667,4,0.6152474833333333,0.001852150547261811,-1.3509964602312395e-06,35.04833333333333,0.019336206683031015,2.3298617431265925e-05,78.479,0.237168716318152,0.8599999999999994,-0.0004196181693842691
S063,9777.0,9806.984375,N1,-0.060124999999999956,17.28936197447364,-33.64,26.41,60.05,2.775,18.94127801713757,812.5,803.5319010416666,0.10152910775842672,0.0,0.06441510347391793,62.57963488514818,0.08970864810004323,63.45076831686122,0.014583333333333334,14,0.6129839250000001,0.0017914833433149604,-6.597321668110211e-07,35.09266666666667,0.01339983416149386,1.6527782261224563e-05,77.578,0.48734929294432505,1.5499999999999972,-0.0008398613389380797
S063,9807.0,9836.984375,W,0.018026041666666614,16.26530289736628,-36.07,29.95,66.02,2.085,28.695763508908517,828.125,820.1741536458334,0.06441510347391796,0.0,0.04564354645876384,62.57364731366136,0.056966646848962285,63.45076831686122,0.005208333333333333,5,0.6104322916666667,0.0021219219683887027,-2.3342182981278098e-06,35.11133333333334,0.01857118436957882,2.6111118194204628e-05,75.27966666666667,0.6284875142399844,2.039999999999992,-0.0011137155798924628
S063,9837.0,9866.984375,W,0.076,70.82838826567,-459.02,332.59,791.6099999999999,1.755,12.604002623107922,796.875,805.7373046875,8.961210717645336,8.71792110755196,22.18142520026453,62.948138545735965,2.4871711427837093,92.62289133902051,0.07916666666666666,33,0.6193472833333333,0.03240477383019961,1.89432785761932e-05,35.142666666666656,0.012631530214329044,1.097222519862733e-05,73.69433333333335,0.2633335443037112,0.9199999999999875,-0.00033767370271096334
S063,9867.0,9896.984375,N1,-0.12479166666666665,14.312952724220251,-31.54,25.17,56.71,1.83,11.679066471754734,796.875,797.2819010416666,0.4348019484489461,0.0,0.21137108216357317,63.39512138231036,0.30997567990880975,63.88270501473775,0.24270833333333333,175,0.6057987249999999,0.0038526490366207807,-6.185047033704171e-06,35.12866666666667,0.01543444920371983,-1.7083337967484066e-05,73.83666666666666,0.11782284253158411,0.4200000000000017,4.916668000398456e-05
S063,9897.0,9926.984375,N1,0.09626562500000005,12.473820274974305,-27.03,20.16,47.19,2.29,17.87384327048286,796.875,802.8157552083334,0.4112552241309525,0.0,0.254795584597841,63.35510772336304,0.3213129747319968,63.88270501473775,0.20520833333333333,153,0.5963821499999999,0.0031064063579695034,-4.638725650695979e-06,35.116,0.009165151389913112,-2.083333898474138e-07,74.343,0.1080478289154087,0.4200000000000017,0.00014475698371228975
S063,9927.0,9956.984375,W,-0.08858333333333332,10.559584423706688,-23.48,21.06,44.54,1.665,29.349521382213208,796.875,805.908203125,0.2943625410196677,0.0,0.18998355191963326,63.30691747929213,0.22553477949622888,63.88270501473775,0.090625,77,0.5872430166666668,0.0031832233584406606,-4.846616766117836e-06,35.12800000000001,0.013012814197295457,1.2291670000994831e-05,74.59233333333333,0.1737753978239983,0.6299999999999955,0.000116076420376631
S063,9957.0,9986.984375,N1,0.0818020833333334,11.378945752572848,-25.3,19.21,44.510000000000005,2.24,18.445976306058743,812.5,811.9791666666666,0.21794494717703367,0.0,0.16827350421923892,63.28542662175592,0.18423889115466852,63.88270501473775,0.04895833333333333,41,0.5809652166666666,0.002122006496154573,-2.297682046897255e-06,35.15833333333332,0.009689627902498749,6.423612853627796e-06,74.70666666666666,0.07764591997580314,0.29999999999999716,2.63888960473112e-06
S063,9987.0,10016.984375,N1,-0.18569791666666668,8.515836144623673,-18.99,15.28,34.269999999999996,1.1949999999999998,30.167403939231708,796.875,805.4768880208334,0.11557806855349138,0.0,0.14627537173085559,63.268848671192714,0.13179967772529425,63.88270501473775,0.013541666666666667,13,0.5750504083333332,0.0022531610665012733,-2.133596281900018e-06,35.17166666666665,0.014395215254460898,1.2326392232637756e-05,74.40733333333334,0.06622856047221884,0.21999999999999886,6.666668475116375e-05
S063,10017.0,10046.984375,N1,0.07941145833333335,9.398743761218059,-20.02,17.9,37.92,1.705,21.347510067911482,812.5,808.2194010416666,0.1496378730654628,0.0,0.17950549357115014,63.2658876584851,0.1592967375986117,63.88270501473775,0.020833333333333332,20,0.5716341083333333,0.001890030294271481,-1.6937810584258667e-06,35.19433333333333,0.024315061633116277,2.031250551012034e-05,74.30233333333332,0.044995061457404194,0.1700000000000017,-4.5104178901959314e-05
S063,10047.0,10076.984375,N1,0.05175520833333337,8.127305704413592,-17.82,12.73,30.55,1.835,31.481785022190593,812.5,823.8362630208334,0.10152910775842672,0.0,0.1462753717308556,63.26695636826612,0.1272408316714685,63.88270501473775,0.010416666666666666,9,0.5664879333333334,0.00238760982900379,-3.1332634367576448e-06,35.20066666666666,0.01711399687065821,-7.63889096106547e-07,74.05066666666667,0.24737196463804903,0.75,-0.0004406945639904929
S063,10077.0,10106.984375,N1,-0.04076041666666671,8.768395475423834,-19.14,13.94,33.08,1.6150000000000002,15.895952576756217,812.5,814.1276041666666,0.17116012950028858,0.0,0.16532992583014122,63.27423621921416,0.15873733572569748,63.88270501473775,0.028125,26,0.5621854083333332,0.0018112357590690975,-1.3283625565219732e-06,35.21133333333333,0.018024674446126585,-9.097224690001533e-06,73.29066666666668,0.12417550304128132,0.3999999999999915,-0.00021354172459356476
S063,10107.0,10136.984375,N1,-0.5464739583333331,44.096495273792605,-261.54,297.47,559.01,1.5750000000000002,12.20084207248264,828.125,821.1344401041666,10.89369198006797,16.432812194608196,28.136996496278652,63.623359536435494,3.5675616739535783,98.73196037757987,0.06145833333333333,25,0.5628900166666665,0.014694471831828083,6.511239179481117e-06,35.2,0.01732050807568861,7.4305575712233e-06,73.37933333333334,0.11902194008762489,0.539999999999992,0.00017701393690699343
S063,10137.0,10166.984375,N1,0.6237708333333334,8.710648760137367,-19.81,21.18,40.989999999999995,2.18,27.753734249542774,828.125,825.3092447916666,0.1496378730654628,0.04559597630883185,0.3913063502196485,63.47833450735561,0.14792398588196734,64.28841264178172,0.21145833333333333,91,0.55020625,0.004995728440794865,-8.368510516631546e-06,35.18933333333334,0.018961950204437597,-1.3611114803362535e-05,74.11833333333334,0.16297409473764635,0.6700000000000017,-6.336807274524552e-05
S063,10167.0,10196.984375,N1,-0.05465625000000006,7.001994060218556,-14.98,12.3,27.28,1.32,29.40599141382762,812.5,803.7027994791666,0.4061164310337068,0.11110243021644486,0.25654623798103576,63.45767098447233,0.17979588369061797,64.60650122085238,0.20208333333333334,145,0.5398715583333333,0.002533226229520484,-3.365682553624832e-06,35.15833333333332,0.012405196043951865,-1.0173613870879436e-05,74.43766666666667,0.25448881224045194,0.75,0.0003834376040141083
S063,10197.0,10226.984375,N1,0.015682291666666667,6.526034620488264,-13.46,12.18,25.64,1.105,37.14668317026976,828.125,821.9156901041666,0.46393241957267395,0.23239907830544904,0.4907300400650262,63.473780481682816,0.2776833264873828,64.60650122085238,0.057291666666666664,49,0.5338072083333334,0.0025799382741189545,-3.295058402522347e-06,35.148999999999994,0.011357816691598934,-1.1631947599810525e-05,74.19166666666666,0.15760886889878847,0.5700000000000074,0.00010947919636479801
S063,10227.0,10256.984375,N1,-0.022072916666666664,6.2804220163151845,-13.85,11.12,24.97,1.28,26.2136742365988,812.5,810.7177734375,0.40385377708260806,0.27794938275700487,0.38863520991913336,63.45878117942866,0.2772024916767615,64.60650122085238,0.084375,69,0.5299637166666666,0.0017050934978437118,-1.3196878579882504e-06,35.14733333333332,0.01030641655582482,2.3611117516031956e-06,73.68800000000002,0.1978955953695455,0.6500000000000057,-0.0002716667403609864
S063,10257.0,10286.984375,N1,0.06307291666666669,7.072450522309541,-23.91,18.1,42.010000000000005,1.4449999999999998,33.110124578827566,812.5,813.8102213541666,3.0998088818775047,0.43784584544677363,3.0577895676338738,63.60743706027588,0.3738769267769193,64.8459713474939,0.11458333333333333,87,0.5285331833333333,0.0019497095509473945,6.202302029704247e-07,35.14966666666666,0.009826268648653828,4.687501271565167e-06,73.554,0.10127849393298223,0.36999999999999034,8.715280141948806e-05
S063,10287.0,10316.984375,N2,-0.056114583333333336,7.311734782425941,-17.48,19.88,37.36,1.415,33.009638287511855,812.5,822.0865885416666,0.1546129520142331,0.4675911601554883,0.5175720813326392,63.65297939835294,0.4086119343023964,64.45153217728807,0.010416666666666666,10,0.5262055916666667,0.002045331535863368,-1.859885487165151e-07,35.14833333333332,0.013682917167847135,7.881946582558293e-06,72.97266666666668,0.36373005863628466,1.2399999999999949,-0.0005840973806687749
S063,10317.0,10346.984375,N2,0.0067031250000000025,6.717066767089032,-15.17,11.18,26.35,0.96,22.952975784000248,828.125,827.197265625,0.07216126567549165,0.3621031712056969,0.4782600118020415,63.736207143525206,0.32606076782289845,64.03905058634146,0.0,0,0.5248816666666667,0.0018979352084714596,-5.118586457949942e-07,35.14866666666665,0.011175369742824582,-7.638890961069165e-07,72.16333333333336,0.2123414441151072,0.7199999999999989,-0.00038180565912697054
S063,10347.0,10376.984375,N2,-0.047385416666666645,6.764658623238426,-16.98,15.95,32.93,1.12,32.0865463943362,828.125,829.5654296875,0.05589199343873463,0.3388075878684275,0.431803187870997,63.728728935887254,0.3081258663922187,64.19501538281614,0.203125,137,0.5225649583333334,0.0017979040732467458,-1.3405366049632795e-06,35.15533333333333,0.008055363982395505,1.6666671187789482e-06,72.665,0.31856710439089553,1.1099999999999994,0.0003105209175675218
S063,10377.0,10406.984375,N2,0.10141145833333329,6.34573515223955,-13.94,11.8,25.740000000000002,1.2850000000000001,45.37759176114541,828.125,829.0934244791666,0.04559597630883185,0.19249988726547926,0.24762544169571915,63.76324604197104,0.17234903847778807,64.03905058634146,0.05625,40,0.5208568666666666,0.0016962387996846114,-2.6967194815319446e-07,35.15266666666665,0.007717224601858616,2.291667288320749e-06,72.80766666666668,0.12802820869723439,0.38000000000000966,0.0001264236454057218
S063,10407.0,10436.984375,N2,-0.03433333333333331,6.575448121083122,-17.14,10.14,27.28,1.31,21.590548101121882,828.125,828.1901041666666,0.08507936450096985,0.13928372696486202,0.06441510347391793,63.765538970188665,0.12828292176944933,64.19501538281614,0.007291666666666667,7,0.5184118833333333,0.0021947645097038443,-2.3157784059728748e-06,35.143666666666654,0.009826268648653826,-4.548612345000274e-06,72.405,0.10343274787674162,0.38000000000000966,-9.288196964029203e-05
S063,10437.0,10466.984375,N2,-0.07470833333333331,6.802110772149865,-19.23,21.63,40.86,1.125,35.26809702648511,828.125,828.4912109375,0.33653249956562725,0.2499913192937351,0.07905694150420949,63.77835006973842,0.2503744833181142,65.06919393998976,0.115625,92,0.5164472666666666,0.0018193304525444575,-1.3314205000598265e-06,35.13666666666666,0.010749676997729848,-9.722224859543137e-06,72.525,0.052009614495780475,0.14999999999999147,-5.8993071558447416e-05
S063,10467.0,10496.984375,N2,0.028140625000000037,6.76464741251466,-14.17,10.26,24.43,1.565,30.67478065505569,812.5,810.3271484375,0.5206572619055649,0.41053297844252284,0.3520633007121495,63.749782765814906,0.34246261802036626,65.58200972827838,0.21458333333333332,139,0.5141839166666667,0.0017826534790555625,-1.264818051437166e-07,35.12800000000001,0.0119443152447794,3.819445480535296e-06,72.47800000000001,0.16271447384913296,0.6000000000000085,0.0002236111717695224
S063,10497.0,10526.984375,N2,0.060359374999999924,7.633755419053779,-15.57,12.29,27.86,1.64,25.147190186966263,812.5,812.1907552083334,0.26928846251123845,0.139283726964862,0.2822820570320087,63.35300729933541,0.16010245788166622,64.87680633323437,0.08854166666666667,34,0.5145576666666668,0.0016860785041694336,-8.29020190163909e-07,35.12266666666667,0.014126413400278346,-1.2013892147865859e-05,73.31,0.1613071604114343,0.769999999999996,0.0002368750642564739
S063,10527.0,10556.984375,N2,0.00860416666666668,8.190554133267336,-18.16,13.5,31.66,1.48,64.06168071357332,796.875,805.6722005208334,0.42296156370880794,0.045595976308831845,0.36010794822525094,63.45657945443779,0.20922223262194758,64.38167441127949,0.125,90,0.5147177749999999,0.0016620803152600724,1.381938308902586e-07,35.12400000000001,0.01171893055416541,-6.458335085268773e-06,74.56733333333334,0.36127490302476806,1.3200000000000074,0.000638541839882226
S063,10557.0,10586.984375,N2,-0.03669270833333335,10.452530198540694,-21.48,16.37,37.85,1.96,18.935403056585233,750.0,752.9459635416666,0.3013838885273878,0.0,0.27161545721335933,63.48941762341048,0.1517119205605248,63.75735251718032,0.07916666666666666,64,0.5145683000000001,0.001834749744969785,-5.285860808881594e-07,35.116,0.01280624847486611,-6.180557232139256e-06,76.58966666666666,0.8844828369668284,2.819999999999993,0.0015937157101008328
S063,10587.0,10616.984375,N2,-0.006593750000000042,11.096733535968784,-22.12,17.16,39.28,2.08,26.532442876596008,750.0,753.5074869791666,0.32226244211391164,0.03225804701500421,0.22838645595544604,63.47699915477079,0.15395877768511837,63.953107821277925,0.05416666666666667,48,0.5131056583333334,0.0016846793883695476,-6.377512580705432e-07,35.11000000000001,0.01154700538379227,-5.6944459891624e-06,79.143,0.6587925824314267,1.8000000000000114,0.0011611461483143873
S063,10617.0,10646.984375,N2,0.08992187500000005,11.075635776716378,-21.81,18.4,40.209999999999994,2.3,33.96954462532931,765.625,761.1409505208334,0.2795007329547138,0.0,0.23632521950693283,63.491129896712465,0.1383212641494654,63.75735251718032,0.059375,52,0.5123902083333334,0.001688254453056122,1.1819122129753092e-07,35.117333333333335,0.010934146311238933,7.430557571223942e-06,79.58,0.20194058532152323,0.5499999999999972,-0.0003538889848874174
S063,10647.0,10676.984375,N2,-0.008395833333333364,11.243007675587345,-20.98,17.58,38.56,2.01,24.568732068813745,750.0,750.341796875,0.2763853991962833,0.03225804701500421,0.21358993356949718,63.49014986960056,0.13630065660890053,64.38167441127949,0.04791666666666667,41,0.5138103,0.0016882290454793144,-6.651646769652391e-07,35.11866666666666,0.01334998959633437,-2.847222994579583e-06,79.41366666666666,0.14772685003824537,0.4399999999999977,-0.00016621532286657074
S063,10677.0,10706.984375,N2,-0.06563020833333336,11.668379422732082,-23.09,18.77,41.86,2.065,34.776135021596886,781.25,772.0540364583334,0.3247177593909654,0.032258047015004204,0.2068462551362458,63.47354890679455,0.15560905102021377,64.38167441127949,0.04479166666666667,39,0.5142800166666667,0.001926366372142702,7.345948173271517e-07,35.11666666666667,0.014907119849998809,1.5277781922143998e-06,79.63133333333332,0.15287758356134415,0.5300000000000011,-9.937502695720173e-05
S063,10707.0,10736.984375,N2,-0.06546875,11.14465630026816,-22.09,17.25,39.34,1.855,22.45668527646261,757.8125,757.7962239583334,0.36985914877228,0.0,0.18483053424390916,63.45135706780831,0.16855638074846643,63.75735251718032,0.03229166666666667,27,0.5141839333333333,0.0018651369330129359,2.138038774424587e-07,35.11333333333334,0.01043498389499959,-8.12500220404814e-06,78.82600000000001,0.15254726043645123,0.5699999999999932,-0.00024666673357929983
S063,10737.0,10766.984375,N2,0.1333072916666667,11.212602881790584,-22.13,17.35,39.480000000000004,2.2300000000000004,33.36509145396821,781.25,778.1575520833334,0.36010794822525094,0.0,0.1899835519196333,63.45638842887126,0.16550699142828454,63.75735251718032,0.035416666666666666,31,0.5138743416666667,0.001909863876021156,3.7919476432149693e-07,35.10266666666668,0.013148721948876303,-4.097223333664294e-06,78.21900000000001,0.17978412981499056,0.6700000000000017,-0.00015677087586015483
S063,10767.0,10796.984375,N2,-0.06263541666666665,11.42927870885031,-35.83,16.37,52.2,2.125,21.815020969647072,765.625,772.0377604166666,0.37907364930475207,0.0,0.16532992583014122,63.44505186726442,0.17193087794595924,63.75735251718032,0.027083333333333334,26,0.5146323666666668,0.0017632661263185,-6.753252699992548e-07,35.12133333333334,0.014313940369056177,1.5208337458860046e-05,78.19766666666668,0.09776445616321339,0.4200000000000017,-0.00013086809105579658
S063,10797.0,10826.984375,N2,-0.11117708333333329,10.973829871652596,-22.92,19.09,42.010000000000005,1.975,38.07501481411387,781.25,781.1767578125,0.4222940305804581,0.04559597630883185,0.18483053424390916,63.42329934376684,0.19551304545540465,64.38167441127949,0.03229166666666667,29,0.5138636916666667,0.0017161982538731393,-2.3720514247101845e-07,35.117333333333335,0.010934146311238933,-8.54166898374339e-06,77.98566666666667,0.1768178598319635,0.5,0.0002800347981865245
S063,10827.0,10856.984375,N2,0.10461458333333337,10.49629212594241,-21.47,18.19,39.66,2.045,26.52375505869347,796.875,793.3024088541666,0.41620286686769575,0.045595976308831845,0.17950549357115012,63.42686846801846,0.19110993524924857,64.38167441127949,0.028125,26,0.5130414833333333,0.001841824376278998,-5.344949366576931e-07,35.114000000000004,0.014047538337137157,1.166666983145392e-05,77.07199999999999,0.37600886514371695,1.269999999999996,-0.0006486112870581809
S063,10857.0,10886.984375,N2,0.0072187499999999925,10.385757002484144,-20.64,16.95,37.59,1.8650000000000002,28.741185408069445,812.5,807.7473958333334,0.40980681212479725,0.07198059875565237,0.1682735042192389,63.43264590159231,0.19218200540958094,64.38167441127949,0.030208333333333334,28,0.51248635,0.0018732626424236183,-3.732336081905543e-08,35.13533333333333,0.011469767022722266,-2.083333898473161e-06,75.63233333333334,0.729934624165448,1.9399999999999977,-0.0012917017392854086
S063,10887.0,10916.984375,N2,-0.04274479166666669,8.665062813382757,-17.87,13.78,31.65,1.295,32.2265614724721,781.25,778.8981119791666,0.436561493377508,0.0,0.20956925068657695,63.4131293270521,0.1990283494790699,63.75735251718032,0.0375,32,0.5126037916666667,0.0017427183311129698,7.783498205158936e-07,35.13433333333333,0.010225241100117174,1.7708338137022238e-06,75.27766666666666,0.2388818862022718,0.8299999999999983,0.00042302094808510773
S063,10917.0,10946.984375,N2,0.07201041666666666,9.557049030247683,-21.57,17.21,38.78,2.0149999999999997,21.524878959596045,796.875,802.9296875,0.40155405579102577,0.04559597630883185,0.21794494717703367,63.439990717127024,0.18505263440722824,64.38167441127949,0.041666666666666664,38,0.5128492833333332,0.0018636186536920164,-4.943812104983738e-07,35.12800000000001,0.013999999999999957,1.5972226554968467e-06,75.57833333333335,0.08963196354475868,0.2600000000000051,8.600696777533002e-05
S063,10947.0,10976.984375,N2,-0.06364062500000006,9.090354212823591,-19.17,15.15,34.32,1.495,27.23167581825282,796.875,807.4055989583334,0.4353917456983104,0.04559597630883185,0.22838645595544604,63.418631059172704,0.20193129326766238,64.38167441127949,0.046875,39,0.5118563666666667,0.0018307484941653916,-8.644342622705714e-07,35.12533333333334,0.013349989596334004,8.819446836872414e-06,75.49533333333335,0.30639553231439715,0.9699999999999989,-0.00046166679190180125
S063,10977.0,11006.984375,N2,0.09851041666666664,9.410700744913111,-20.09,16.82,36.91,1.435,53.47378929396072,812.5,818.2210286458334,0.20024941045828046,0.10642856726723121,0.13257842935619488,63.50397870575496,0.12458680648736177,64.82283548256741,0.013541666666666667,12,0.5107779416666667,0.0017627758757890544,-2.585827524367295e-07,35.13466666666667,0.01117536974282563,-2.708334068015874e-06,74.77,0.2508518819276977,0.8700000000000045,-3.263889774274808e-06
S063,11007.0,11036.984375,N2,-0.08812499999999995,8.841583287287502,-19.03,14.04,33.07,1.545,32.606293362126436,781.25,788.1266276041666,0.04559597630883184,0.0,0.04564354645876384,63.51288838698751,0.02255531117874768,63.75735251718032,0.0010416666666666667,1,0.509785075,0.0016522706102134147,-7.075958950726781e-07,35.14133333333333,0.011175369742825248,-3.4027787008402203e-06,74.20233333333334,0.09680507332894424,0.4200000000000017,7.989585500646799e-05
S063,11037.0,11066.984375,N2,0.03934895833333331,8.410152820345266,-20.06,14.73,34.79,1.42,29.847859737103825,796.875,795.654296875,0.06451609403000842,0.0,0.04564354645876384,63.51289995329969,0.03350903570784605,63.96092557178953,0.0020833333333333333,2,0.5098063833333333,0.0016579900893518317,4.3452876370680635e-07,35.14466666666666,0.010873004286864565,4.236112260229262e-06,75.148,0.34843842114975393,1.3200000000000074,0.0005184029184035709
S063,11067.0,11096.984375,N2,-0.03390625000000003,8.42613727187875,-19.17,18.12,37.290000000000006,1.475,37.50045210954314,796.875,802.4739583333334,0.05581428468591172,0.0,0.0,63.51242033629801,0.024249234934583277,63.51377803280167,0.0,0,0.5094434333333333,0.0018272813856169594,-4.006008031143577e-07,35.146666666666654,0.009775252199074842,5.138890282901071e-06,75.50766666666665,0.21248816960532727,0.7000000000000028,-0.00037072926723341723
S063,11097.0,11126.984375,N2,0.00510937500000006,9.828802465443275,-37.1,74.26,111.36000000000001,1.31,32.144518881603666,812.5,814.3880208333334,0.41305597002706546,0.43471209941178307,0.3415396105220528,63.25116044977912,0.2682382454045537,64.83054835492293,0.06979166666666667,54,0.5089736833333334,0.001960276272975044,-1.4186353674683662e-06,35.14833333333332,0.011855612829183466,5.243056977824743e-06,74.70233333333333,0.24992910105779165,0.9500000000000028,-0.0004307292835094633
S063,11127.0,11156.984375,N2,-0.000520833333333326,7.925732579152077,-18.59,14.47,33.06,1.495,30.53877735912929,812.5,817.1712239583334,0.20453835214941965,0.3487079325484613,0.3259334884434075,63.23451122770632,0.30056578827770203,64.20280367709809,0.12395833333333334,106,0.5081410083333334,0.0017250039830670758,8.530492765433142e-08,35.15299999999999,0.010049875621119527,-1.6319448871380205e-06,74.18200000000002,0.06342449579355479,0.29999999999999716,-7.541668712475171e-05
S063,11157.0,11186.984375,N2,0.05405208333333334,8.514518191827063,-18.33,13.13,31.46,1.9849999999999999,19.009537001511124,828.125,827.1728515625,0.23040385738958447,0.3903123748998999,0.27161545721335933,63.25828030677374,0.32814777612254553,64.20280367709809,0.15625,120,0.5081303333333334,0.002023231175345255,3.6981303434598225e-07,35.15199999999998,0.008717797887079614,1.9444449719085137e-06,73.18633333333332,0.32772430825653176,1.0500000000000114,-0.0005498265380388821
S063,11187.0,11216.984375,N2,-0.060651041666666704,8.043801660226427,-18.63,13.61,32.239999999999995,1.59,22.98692856097331,812.5,810.5305989583334,0.2242827108249764,0.4090767042988393,0.2530285309999645,63.27827717614722,0.35392459463168624,64.20280367709809,0.19166666666666668,131,0.50768195,0.0018638003641753198,-2.085317405956287e-07,35.15666666666666,0.006497862896538867,2.1527783617557805e-06,72.91233333333334,0.05181269685661669,0.21999999999999886,-2.9201396810276207e-05
S063,11217.0,11246.984375,N2,0.003697916666666649,7.970951066763969,-18.38,14.12,32.5,1.685,30.08730859636157,812.5,824.6337890625,0.23437268517375387,0.41480835601783894,0.2494438257849294,63.28257497131008,0.35805725871482247,64.20280367709809,0.19375,138,0.5078634583333334,0.0018585996291824844,-9.438385806853851e-07,35.16033333333333,0.008749603165604847,3.0902786160700227e-06,73.49500000000002,0.14011304959448462,0.5499999999999972,7.197918619227168e-05
S063,11247.0,11276.984375,N2,-0.02920312500000003,7.203100774752512,-15.97,13.01,28.98,1.7650000000000001,24.591607032358,828.125,828.02734375,0.2582808246366733,0.44055357971218684,0.21358993356949718,63.308497806003984,0.3856019716251052,64.20280367709809,0.23229166666666667,165,0.50729765,0.0019044510436081138,1.0902346707450209e-07,35.161666666666655,0.010027739304328154,1.0763891808773352e-06,73.33500000000001,0.2728583270979026,0.7999999999999972,-0.00041690983531625234
S063,11277.0,11306.984375,N2,0.06915104166666668,7.8266276567361,-17.27,12.55,29.82,1.84,29.881579138873903,828.125,831.8115234375,0.139563897900647,0.3960402419753438,0.07210109366946754,63.26300784403042,0.3402893760892088,64.66065264130884,0.184375,131,0.506240725,0.0017391492027353458,-7.837534678150742e-07,35.16333333333332,0.012472191289247344,1.6666671187791452e-06,72.39166666666667,0.17892425461319894,0.5699999999999932,-0.00025878479242209205
S063,11307.0,11336.984375,N2,-0.054635416666666714,7.035127736076462,-14.75,12.2,26.95,1.315,34.27102132357255,828.125,827.4739583333334,0.13215215741081693,0.40232478717449166,0.07198059875565237,63.269133615175186,0.34318107724061997,63.96092557178953,0.19375,146,0.5051196166666666,0.001893214088894551,-1.1344738320512676e-06,35.18333333333332,0.017950549357116413,7.152779718094328e-06,72.47633333333333,0.18979784567329144,0.5,0.00029475702440240624
S063,11337.0,11366.984375,N2,0.11198958333333332,8.704938732307356,-19.94,15.54,35.480000000000004,1.915,23.843590003271604,843.75,835.1399739583334,0.08507936450096985,0.4083426338226542,0.11557806855349138,63.27810906086131,0.3486239833130994,63.96092557178953,0.20625,139,0.504105275,0.0017730643105581206,-8.650833509883171e-07,35.178,0.011661903789691773,4.027778870383253e-06,72.25099999999999,0.0731824204755929,0.29999999999999716,-7.156251941257475e-05
S063,11367.0,11396.984375,N2,-0.1473541666666667,6.983397646351379,-16.17,13.94,30.11,1.37,26.101208329680095,843.75,843.1070963541666,0.5097902193141148,0.24944382578492943,0.5038814189618427,63.179578389590084,0.30145399921379384,64.66838485689897,0.10208333333333333,74,0.5031336833333333,0.0017803265055570086,-3.1972447909192473e-07,35.184333333333335,0.018562207723102565,1.0069447175958256e-06,71.76233333333334,0.34570395170177304,0.8499999999999943,-0.0005954515504154583
S063,11397.0,11426.984375,N2,0.07019791666666667,7.255566926103178,-16.06,11.76,27.82,1.885,32.125851254991346,828.125,831.787109375,0.49434299833212964,0.12801909579781012,0.26339134382131846,63.17316780958884,0.25987606314293027,64.19501538281614,0.06354166666666666,51,0.5025677916666668,0.0016662846490312474,-4.846427095927395e-07,35.185666666666656,0.018199511592958902,-7.118057486452042e-06,71.90766666666667,0.20726284975578466,0.6800000000000068,0.0002986459143462227
S063,11427.0,11456.984375,N2,-0.04128645833333332,8.221757622133378,-18.09,14.7,32.79,1.66,36.60424869378354,843.75,831.8277994791666,0.4931815908944922,0.09636964965693294,0.23437268517375387,63.16650579398293,0.24757984312227602,64.19501538281614,0.04583333333333333,35,0.5015108833333334,0.0018636910606970867,2.7356300823649237e-07,35.202,0.019390719429664683,1.6805560114355412e-05,71.78299999999999,0.0933862944976394,0.3100000000000023,9.607641495128556e-05
S063,11457.0,11486.984375,N2,0.07314062499999997,7.677094148410448,-16.8,14.36,31.16,1.72,23.81290999243421,828.125,820.0602213541666,0.4924682290231749,0.12801909579781012,0.24578919095210205,63.17615514115476,0.25307425934878486,64.19501538281614,0.05416666666666667,49,0.5009130500000001,0.0018054739444718362,-5.042757444324429e-07,35.21366666666666,0.014487542541399256,2.7430562996571714e-06,72.31166666666667,0.16389190204386422,0.6500000000000057,0.00027843757553102624
S063,11487.0,11516.984375,N2,-0.11612500000000002,7.536823731754755,-17.95,11.8,29.75,1.58,52.316525086560404,828.125,818.5221354166666,0.4992659542323666,0.1496378730654628,0.20024941045828049,63.14803169251992,0.2681915245363561,64.42049363362563,0.04375,38,0.5011906333333334,0.0018322009075304958,-4.1088335798702683e-07,35.205999999999996,0.019252705437591076,4.375001186795168e-06,72.75966666666667,0.05281939879332903,0.18999999999999773,2.7187507375082634e-05
S063,11517.0,11546.984375,N2,0.056999999999999953,7.794081225252489,-17.73,13.89,31.62,1.3450000000000002,21.672330262819568,828.125,831.8684895833334,0.49826086429589156,0.1496378730654628,0.21404665898402203,63.156293477984036,0.2647529466336004,64.42049363362563,0.04895833333333333,41,0.5007956250000001,0.0018641557832903945,-7.70045781804964e-08,35.207333333333324,0.015477582354991297,8.402780057177853e-06,72.46333333333334,0.17428584439235398,0.539999999999992,-0.0003032639711545077
S063,11547.0,11576.984375,N2,0.06315104166666666,7.794781121185278,-17.56,12.3,29.86,1.7149999999999999,38.11205020398765,796.875,804.0852864583334,0.4746149298086,0.11557806855349138,0.19249988726547926,63.20056203075935,0.25083327026747,64.19501538281614,0.03958333333333333,36,0.499706725,0.0017538965617661302,-5.791522838412238e-07,35.212666666666664,0.017688665548561338,3.3333342375572303e-06,72.68533333333335,0.4429050562918515,1.2199999999999989,0.0007772918775205815
S063,11577.0,11606.984375,N2,-0.07931770833333332,8.688865402478896,-18.52,17.89,36.41,1.795,24.465310794912593,796.875,796.09375,0.4699106002445808,0.11557806855349137,0.15612494995995996,63.20380510021075,0.24337047459980335,64.19501538281614,0.03333333333333333,32,0.49996297500000003,0.0017064584547267418,-6.447243502398989e-07,35.20866666666666,0.016478942792410228,2.8472229945809166e-06,73.852,0.36896612310617355,1.269999999999996,0.0006381946175658139
S063,11607.0,11636.984375,N2,-0.004781249999999989,10.35522335255571,-37.58,21.74,59.31999999999999,2.17,17.31057844886376,781.25,775.6184895833334,0.6495783554972837,0.06441510347391795,0.8634555897992412,63.34270771606716,0.2289560297372033,64.66838485689897,0.17395833333333333,70,0.5004113250000001,0.0018868439396803227,4.906765653962058e-07,35.20666666666666,0.019720265943664824,9.513891469696931e-06,75.74333333333334,0.4372820091834963,1.6500000000000057,0.0007721529872376806
S063,11637.0,11666.984375,N2,-0.0016302083333333015,10.688998257492177,-21.46,16.75,38.21,2.035,20.032389163566734,750.0,750.87890625,0.12426432820358738,0.0,0.4951051638428839,63.48950806436463,0.11668652440607505,63.90618123468183,0.428125,172,0.5034327333333333,0.006326266498672203,8.392574325242604e-06,35.21066666666666,0.020965580258020894,1.4861115142446627e-05,77.732,0.6944753415348889,2.230000000000004,0.0012450697821912392
S063,11667.0,11696.984375,N2,0.07184375000000003,12.408789716389988,-24.72,18.85,43.57,2.4,20.58953205778891,734.375,738.9567057291666,0.17365242563971153,0.032258047015004204,0.5022075831737531,63.493036800997935,0.13657520683678134,64.60650122085238,0.007291666666666667,6,0.6486434,0.12966925063004206,0.00022023319298860482,35.223,0.013940349110883194,2.812500762939224e-06,79.78999999999999,0.526852287964411,1.6800000000000068,0.0009385419212624593
S063,11697.0,11726.984375,N1,-0.0894635416666666,20.111346428843657,-100.2,97.22,197.42000000000002,1.93,23.713571317338467,703.125,697.0458984375,8.59812237254933,12.391097440902099,9.6825632022172,63.089866793597956,1.9407793879601318,81.11103500757464,0.036458333333333336,13,1.0947064416666665,0.16566466961203064,0.0002876039901269504,35.23666666666667,0.010749676997732492,5.277779209467718e-06,81.81433333333334,0.8710058680756533,2.950000000000003,0.0015639934798159394
S063,11727.0,11756.984375,N2,0.06642187500000006,15.859174807739466,-33.0,24.15,57.15,3.215,35.31498899287047,796.875,789.0055338541666,0.3210226714043037,0.0,0.10152910775842668,62.32704298784634,0.2502579825284523,63.0158710167526,0.11354166666666667,89,1.3602774666666666,0.0784545320948099,8.326053170044807e-05,35.25066666666667,0.012092238098146593,5.208334746185369e-06,83.20399999999998,0.7432209182560288,2.1700000000000017,-0.0012718753450182705
S063,11757.0,11786.984375,N2,0.001791666666666695,16.798710894810664,-32.69,24.57,57.26,3.245,20.289270861406138,765.625,769.6533203125,0.31725377318043396,0.0,0.05581428468591172,62.32796230121144,0.2460326105020991,63.0158710167526,0.1125,93,1.379781991666667,0.07001663748227938,5.3211889217634844e-05,35.244666666666674,0.013597385369582883,-8.194446667331648e-06,80.37233333333333,1.1287299155343677,3.75,-0.0020255213827911726
S063,11787.0,11816.984375,N2,-0.02596354166666668,17.51887126277225,-40.18,32.67,72.85,2.815,16.01621838635981,765.625,769.3929036458334,0.25654623798103576,0.0,0.04559597630883184,62.295361537112576,0.20003573122854207,63.0158710167526,0.07083333333333333,63,1.5889874999999998,0.15694184157642602,-0.00013284043360471827,35.248000000000005,0.011944315244781145,3.4722231641235797e-07,77.67800000000001,0.36915579366982726,1.0700000000000074,0.00048340290890921055
S063,11817.0,11846.984375,N2,0.05513541666666667,17.313257224186007,-33.2,25.73,58.93000000000001,3.105,17.731468197727494,765.625,766.455078125,0.24016912082368588,0.0,0.045595976308831845,62.288101483315344,0.18740847777316685,63.0158710167526,0.06145833333333333,56,1.4079998833333334,0.08483344065237318,-9.510291295109401e-05,35.26066666666666,0.01339983416149558,2.50000067816878e-06,78.13100000000001,0.13367497896016156,0.37999999999999545,0.00015565976444763222
S063,11847.0,11876.984375,N2,0.012911458333333315,17.537027203548316,-55.09,38.39,93.48,2.9450000000000003,20.011111921060593,781.25,780.1350911458334,0.2556310275029662,0.03225804701500421,0.38085561340735,62.36937774523948,0.24641361899373299,63.0158710167526,0.234375,122,1.2071114166666665,0.04183868594506431,-7.519017664664079e-05,35.26266666666667,0.015040685563571934,5.486112599315009e-06,78.071,0.19391321082724972,0.5499999999999972,-0.0003375348137843997
S063,11877.0,11906.984375,N2,-0.13895312500000007,17.104461701613687,-34.42,26.03,60.45,2.955,32.7064121192345,796.875,788.6311848958334,0.04559597630883185,0.0,0.49727992759500056,62.50375559183771,0.23566271621553422,63.0158710167526,0.0020833333333333333,2,1.0909300083333335,0.025599179637082064,-4.600955132637567e-05,35.27266666666666,0.01436043948569164,-7.361113107940953e-06,77.17533333333334,0.33279356297193563,1.0,-0.0005876390482961833
S063,11907.0,11936.984375,N2,0.11352083333333338,16.790512800499354,-33.9,25.77,59.67,3.05,17.870463746390037,781.25,783.2194010416666,0.0,0.0,0.49999565970338394,62.4785337664135,0.23608275200331036,62.71363488110062,0.0,0,1.0162053416666668,0.018386048681221966,-3.297323138379758e-05,35.28333333333333,0.016599866130651193,1.0277780565803798e-05,76.579,0.040029156040735,0.15000000000000568,-4.843751313951969e-05
S063,11937.0,11966.984375,N2,-0.009859375000000033,14.665284466037741,-30.83,23.13,53.959999999999994,2.585,36.14239723077611,796.875,811.1165364583334,0.0,0.0,0.4890289414293959,62.428365746124626,0.23090460099275154,62.71363488110062,0.3958333333333333,217,0.9686267416666666,0.00987375825736738,-6.9153870755715835e-06,35.298,0.014236104336042046,1.6388893334661273e-05,76.32433333333331,0.3851552356590211,1.1100000000000136,-0.0005988543291162997
S063,11967.0,11996.984375,N2,0.0445,15.16167942132401,-29.89,22.18,52.07,3.16,18.840817103915693,812.5,805.9407552083334,0.0,0.0,0.4996483138168286,62.48640325979215,0.23591874583404943,62.71363488110062,0.0,0,0.9451717833333333,0.012172215062170168,-2.17763123308139e-05,35.30733333333333,0.016110727964792616,1.6250004408096526e-05,74.83533333333335,0.3729587406432804,1.1799999999999926,-0.000659305734403681
S063,11997.0,12026.984375,N2,-0.12704166666666677,16.11003196117036,-33.0,24.34,57.34,2.92,14.950977326665335,796.875,795.99609375,0.0,0.03225804701500421,0.4977978850648122,62.499241374794124,0.235040936620455,62.71363488110062,0.0,0,0.9100995499999999,0.008942952377757215,-1.5918623675841934e-05,35.31133333333334,0.0154344492037195,-4.305556723511709e-06,74.634,0.24212393520674552,0.6800000000000068,0.00042625011562774526
S063,12027.0,12056.984375,N2,0.09933333333333326,17.36854277414263,-35.77,28.59,64.36,3.215,23.36890319400369,796.875,799.0804036458334,0.30417915214100755,0.0,0.4930066485916346,62.546421178849336,0.30343486613331067,66.61831579978588,0.00625,3,0.8809848333333332,0.008183555695553256,-1.446792276148077e-05,35.32066666666666,0.011234866364233556,-6.9444463282479e-07,75.29766666666667,0.2316129434111058,0.6000000000000085,0.0004042014985355649
S063,12057.0,12086.984375,N2,-0.11228125000000007,17.96002052894331,-35.91,26.35,62.26,3.425,30.913700835491145,812.5,807.8450520833334,0.0,0.0,0.40536629311922595,62.61575805720368,0.19140164157772935,62.71363488110062,0.0,0,0.8544110416666667,0.0070966330577674095,-1.2357488812252823e-05,35.327666666666666,0.008439325934114136,6.5625017801927885e-06,74.91433333333333,0.2999520332023459,0.8999999999999915,-0.0005146876396179547
S063,12087.0,12116.984375,N2,0.036864583333333395,15.831236148250152,-31.39,25.1,56.49,3.265,19.481272864074203,812.5,811.1979166666666,0.0,0.03225804701500421,0.4596087840489997,62.570066815201955,0.2171529595197211,62.71363488110062,0.0,0,0.8333357333333333,0.006313315882235648,-1.1038949609090058e-05,35.32833333333333,0.010027739304327482,-1.3541670340072952e-06,74.403,0.2690123912883342,0.6800000000000068,-0.0004678820713655832
S063,12117.0,12146.984375,N2,0.04815624999999999,15.564771077144671,-30.85,24.16,55.010000000000005,3.09,17.105645518892135,828.125,821.6878255208334,0.0,0.0,0.4353917456983104,62.59362510707622,0.20557874759345018,62.71363488110062,0.0,0,0.8148867583333333,0.005251744897326721,-9.091677596483727e-06,35.33433333333334,0.010225241100119143,-4.9652791246952995e-06,74.01866666666666,0.04688520259337843,0.20000000000000284,-7.395835339581886e-05
S063,12147.0,12176.984375,N2,0.07183854166666664,15.389303404508423,-30.45,23.59,54.04,3.3600000000000003,23.27003698258539,828.125,826.8636067708334,0.0,0.0,0.4274629918191749,62.60001907044637,0.20183503102428302,62.71363488110062,0.0,0,0.7967688,0.0055471640000394175,-9.59911762128841e-06,35.330000000000005,0.010000000000000378,4.51389011335905e-06,73.56533333333333,0.1705038285656817,0.7099999999999937,-0.00023180561843685164
S063,12177.0,12206.984375,N2,-0.08796874999999994,14.316058620154154,-27.12,20.3,47.42,3.045,19.96251699921589,812.5,820.3938802083334,0.0,0.0,0.3799671038392666,62.6310052006248,0.17940891646602936,62.71363488110062,0.0,0,0.7802202166666667,0.004084864522811273,-6.777485345455001e-06,35.33766666666667,0.007608474807009758,1.2847225707269951e-06,72.99133333333333,0.0555417760689066,0.1799999999999926,-5.486112599314247e-06
S063,12207.0,12236.984375,N2,-0.09955208333333329,14.433806804231192,-32.47,37.94,70.41,2.435,26.957350935569192,812.5,813.1184895833334,0.14994211846205485,0.03225804701500421,0.49258389020438836,62.43817366575639,0.25513581646590033,64.73020933072904,0.403125,76,0.7677501416666666,0.003981664978991893,-6.603134820728833e-06,35.34400000000001,0.014966629547094783,-2.0833338984785886e-07,73.02433333333333,0.17490346543800075,0.5900000000000034,0.00023656256417169865
S063,12237.0,12266.984375,N2,0.23891145833333333,13.846910802160664,-27.96,21.07,49.03,3.765,37.673568823224706,812.5,825.6754557291666,0.11557806855349137,0.0,0.14282613750835507,62.26178888947881,0.11114232004324809,63.0158710167526,0.034375,32,0.7533583083333333,0.00431938763367339,-7.2057556439224416e-06,35.357000000000006,0.01951922129594151,5.520834830955369e-06,73.32533333333335,0.14593910449986242,0.37999999999999545,-0.00023284728538608838
S063,12267.0,12296.984375,N2,-0.13280729166666666,15.085656366380954,-30.42,23.79,54.21,3.175,16.786981473293338,828.125,825.0406901041666,0.10642856726723121,0.03225804701500421,0.18998355191963326,62.267594009378215,0.12444389597317312,63.48228099241551,0.04791666666666667,46,0.7411657166666668,0.003705822734075238,-5.9946856539403335e-06,35.361000000000004,0.01699999999999783,3.437500932481345e-06,73.14733333333334,0.18505734846858188,0.5800000000000125,-0.00032673619974397705
S063,12297.0,12326.984375,N2,0.024619791666666776,12.266108153381072,-27.66,20.03,47.69,2.42,37.75592645716548,828.125,833.3333333333334,0.2622828963320585,0.08523227047636099,0.15376848917736327,62.3078520858829,0.21239140849854576,63.48228099241551,0.09479166666666666,69,0.7299554833333334,0.003931464667659568,-6.327156664267757e-06,35.35266666666668,0.01711399687065597,1.2500003390844394e-06,72.93933333333334,0.13566953313925093,0.480000000000004,-8.888891300153896e-06
S063,12327.0,12356.984375,N2,0.08636979166666665,12.714420098304554,-27.62,21.29,48.91,2.83,26.576527151729355,843.75,843.2047526041666,0.3247177593909654,0.0,0.0,62.334232632457415,0.2514632962232916,63.0158710167526,0.11979166666666667,92,0.7184035833333333,0.003365298120977632,-5.316327831035118e-06,35.357666666666674,0.018199511592956265,2.4305562148890964e-07,72.05466666666665,0.27941287650277746,0.8500000000000085,-0.00047784735184661455
S063,12357.0,12386.984375,N2,-0.22044791666666672,13.25593193109676,-35.19,28.63,63.81999999999999,2.52,36.599964064874015,828.125,830.1513671875,0.5282143662062464,0.6167150530003482,0.12068956964966865,62.44315374411124,0.28767833185551983,64.81512169239521,0.06979166666666667,56,0.7095100416666668,0.002806548424060636,-4.3516680641460755e-06,35.35133333333335,0.01606929439092295,1.5277781922135856e-06,71.57300000000001,0.15255927809652528,0.46999999999999886,4.6354179241040484e-05
S063,12387.0,12416.984375,N2,0.13442708333333336,14.006450797493269,-27.71,21.04,48.75,3.275,25.017127157213487,828.125,834.8063151041666,0.26339134382131846,0.05581428468591172,0.05581428468591172,62.53824390687718,0.20748263527077035,63.06346010171025,0.005208333333333333,5,0.7007445416666667,0.0032148647713805775,-4.8469915492056055e-06,35.35266666666667,0.01982142499642333,-7.222224181375097e-06,71.894,0.08784835418682331,0.269999999999996,0.00012243058876698127
S063,12417.0,12446.984375,N2,0.021802083333333354,13.632538663005105,-40.89,28.33,69.22,2.865,37.811118977305775,828.125,830.9895833333334,0.2929269646127209,0.0,0.11987768650679835,62.52691745564061,0.2240948359653697,63.06346010171025,0.00625,6,0.6921180499999999,0.002734845324236814,-3.7694029322381966e-06,35.357000000000006,0.017349351572895293,-2.951389689504068e-06,71.96766666666666,0.05457003654835443,0.1799999999999926,-5.8645849242037104e-05
S063,12447.0,12476.984375,N2,0.07729687500000001,12.531283870918092,-25.24,18.71,43.95,2.635,26.64373604019487,843.75,841.6341145833334,0.2221950938302244,0.032258047015004204,0.055814284685911715,62.55522728774943,0.17617882394798456,63.06346010171025,0.004166666666666667,4,0.6854452833333333,0.002827570261972086,-4.148375257263251e-06,35.34933333333334,0.01671991493864428,5.208334746183147e-06,72.028,0.16737980762326177,0.519999999999996,-0.00018368060538211044
S063,12477.0,12506.984375,N2,-0.09089583333333336,13.0879614066063,-34.64,21.07,55.71,2.855,17.844434447039607,828.125,830.1676432291666,0.22008274564480418,0.0,0.045595976308831845,62.55511697189286,0.1709258108157696,63.06346010171025,0.0010416666666666667,1,0.6779502999999999,0.0028762343193835913,-4.0937328813294455e-06,35.34333333333334,0.012472191289245258,6.250001695423926e-07,71.99666666666667,0.10771361205633125,0.36999999999999034,9.423613667429924e-05
S063,12507.0,12536.984375,N2,-0.09524999999999993,12.88857580136378,-25.7,19.03,44.730000000000004,2.8049999999999997,22.166891720712066,812.5,823.6897786458334,0.22008274564480418,0.032258047015004204,0.03225804701500421,62.5550612775503,0.173013184258357,63.06346010171025,0.0020833333333333333,2,0.6719075083333335,0.002181734386506285,-2.550759155479388e-06,35.34400000000001,0.011999999999998442,-8.333335593894148e-06,72.04599999999999,0.33963313540740714,0.9200000000000017,0.0005403473688008262
S063,12537.0,12566.984375,N2,0.027302083333333373,13.095787431476287,-27.81,19.44,47.25,3.035,19.62898553818546,828.125,825.2522786458334,0.2221950938302244,0.0,0.03225804701500421,62.5538095763267,0.17401864456855415,63.06346010171025,0.0010416666666666667,1,0.66638775,0.002581230721477644,-3.5812262318864552e-06,35.334666666666664,0.010241527663825318,1.1111114125186327e-06,72.55500000000002,0.07839005038906315,0.21999999999999886,-4.628473477775855e-05
S063,12567.0,12596.984375,W,0.26329166666666665,12.695691563246848,-26.05,22.45,48.5,2.995,21.976628450753605,828.125,820.7845052083334,0.25654623798103576,0.16532992583014122,0.27638539919628335,62.56647535970304,0.21821869077995243,63.06346010171025,0.05520833333333333,36,0.6606331166666666,0.0022749519415558657,-2.4661760162152607e-06,35.33433333333333,0.004955356249108704,7.291668644662108e-07,72.85066666666668,0.0796213260097807,0.28000000000000114,4.361112294138388e-05
S063,12597.0,12626.984375,N1,-0.05227083333333328,14.615839337199077,-35.58,46.49,82.07,1.63,85.48250800902208,812.5,846.4274088541666,0.47616359671160635,0.2830555470368552,0.9238731875461409,62.22509376886514,0.4097728508255787,66.97014260101288,0.05520833333333333,37,0.6580494833333332,0.001594565322082754,-1.190082354080492e-06,35.339000000000006,0.01135781669160054,5.868057147368048e-06,72.65766666666667,0.28056708447159145,0.8499999999999943,0.0001178125319586949
S063,12627.0,12656.984375,N1,-0.31205729166666657,18.96422842833671,-36.87,29.86,66.72999999999999,2.925,14.693795516538863,765.625,760.4817708333334,0.05581428468591172,0.12401959270615269,0.29292696461272083,62.113986991661065,0.1425774634830285,62.91263784010332,0.11145833333333334,92,0.6548569916666668,0.0017856793174953352,-9.594271265807163e-07,35.34466666666667,0.015216949614016817,-1.3888892656506408e-06,74.42566666666667,0.8700447625777012,2.75,0.0015639240353526567
S063,12657.0,12686.984375,N1,0.03814062500000004,20.450869873283494,-50.23,33.41,83.63999999999999,3.56,17.117807912249628,765.625,771.8587239583334,0.0,0.12401959270615269,0.36210317120569685,62.13716902067869,0.16245849400773368,62.91263784010332,0.16875,119,0.651312625,0.00199022336293566,-1.3237050031751712e-06,35.36000000000001,0.016733200530679455,1.2708336780688453e-05,77.55666666666666,0.762562930007892,2.3799999999999955,0.0012545836736609338
S063,12687.0,12716.984375,N1,0.059656250000000126,22.406478527113595,-45.34,35.14,80.48,4.135,25.533752026208546,765.625,763.0615234375,0.0,0.16827350421923892,0.30138388852738773,62.11988240867611,0.1457779095708504,62.91263784010332,0.128125,100,0.6495509083333334,0.002786120758916231,4.775927944858779e-07,35.37199999999999,0.015362291495736657,-3.4722231641217285e-06,78.40133333333333,0.046312945154558305,0.1600000000000108,-1.923611632924545e-05
S063,12717.0,12746.984375,N1,-0.055651041666666706,23.64856470920194,-47.73,34.96,82.69,4.005,26.53291837760757,765.625,776.7740885416666,0.0,0.1356408400888169,0.232399078305449,62.09683958842874,0.11278945998237953,62.489999199871974,0.07604166666666666,63,0.6674980833333333,0.004605913252879995,-7.033245397473255e-06,35.381,0.01220655561573442,-4.062501102024774e-06,78.16766666666668,0.07468526554072884,0.25,-4.7187512800430355e-05
S063,12747.0,12776.984375,N2,0.14963541666666663,25.491727446377823,-49.34,37.57,86.91,4.84,28.278731297786177,765.625,770.4752604166666,0.0,0.17399263633843817,0.16232629604869594,62.08930140070344,0.10157873435936966,62.91263784010332,0.057291666666666664,51,0.8781235833333334,0.11232507568374801,0.00014830542955333913,35.39599999999999,0.017243356208503174,4.37500118679455e-06,77.916,0.15974145777891405,0.4299999999999926,-0.0002769445195704494
S063,12777.0,12806.984375,N2,-0.03711979166666679,24.38114415482075,-50.1,38.52,88.62,3.7800000000000002,18.22974067874158,781.25,779.2805989583334,0.03225804701500421,0.17399263633843817,0.1682735042192389,62.09102998221179,0.10624224557127515,62.91263784010332,0.06041666666666667,55,0.9866605583333334,0.1253542239532169,0.00018713673717901934,35.40933333333332,0.014126413400277676,5.208334746183494e-06,77.74433333333333,0.10815677920911239,0.29999999999999716,-8.218752229479234e-05
S063,12807.0,12836.984375,N2,0.05532812499999998,24.660299247065797,-61.51,55.78,117.28999999999999,3.965,15.520276821323373,765.625,769.9137369791666,0.0,0.2304038573895845,0.1529193630552463,62.09860957639714,0.11717655425112809,62.91263784010332,0.07916666666666666,65,1.0484773749999998,0.05947178901841645,-0.00010195406954049193,35.41599999999999,0.015620499351814265,1.4791670679165438e-05,77.59533333333333,0.05004886501099697,0.14000000000000057,5.916668271665894e-05
S063,12837.0,12866.984375,N2,-0.13573437500000002,22.84423592466,-44.0,34.29,78.28999999999999,3.16,16.509184284927056,765.625,769.8974609375,0.0,0.22428271082497642,0.21137108216357317,62.10703125916761,0.12910527788354895,62.91263784010332,0.09895833333333333,83,0.9221426416666667,0.02403476389690423,-4.269151961032977e-05,35.431333333333335,0.01257864150941077,-8.472224520461535e-06,77.79566666666668,0.23767882156856743,0.6400000000000006,0.0003744098237873903
S063,12867.0,12896.984375,N2,-0.025937499999999947,21.817709692000836,-43.1,32.67,75.77000000000001,3.2800000000000002,24.36877309702382,765.625,772.94921875,0.0,0.24016912082368583,0.2382571993782256,62.11633044122722,0.14445593192826697,62.91263784010332,0.11770833333333333,98,0.8629522916666666,0.013089133026035897,-2.341542280149271e-05,35.441333333333326,0.011175369742827948,-1.1805558758016965e-06,78.22733333333333,0.09316413234477758,0.2599999999999909,0.0001283333681459849
S063,12897.0,12926.984375,N2,0.18860937500000005,21.274808586915935,-44.11,33.12,77.22999999999999,3.5199999999999996,22.888187572337614,781.25,778.9632161458334,0.07210109366946754,0.11557806855349137,0.4733787665255194,62.37867763466938,0.19778325678296618,62.928530890209096,0.011458333333333333,8,0.8263533666666666,0.009074009602461058,-1.614601913683244e-05,35.45399999999999,0.010832051206180174,1.2500003390839951e-06,77.83966666666667,0.15644984996974498,0.6700000000000017,-0.000229895895696587
S063,12927.0,12956.984375,N2,-0.018906249999999947,22.043211356984965,-44.45,35.66,80.11,3.54,36.9344225693601,796.875,797.2086588541666,0.0,0.06441510347391793,0.4359782562589052,62.38317080686921,0.18652546112265164,62.91263784010332,0.0020833333333333333,2,0.8004628749999999,0.006274161900953386,-1.0887468448206504e-05,35.464000000000006,0.01171893055416335,1.4583337289308918e-06,76.92266666666666,0.5844480777242346,1.4299999999999926,-0.0010127780525114028
S063,12957.0,12986.984375,N2,-0.06459375000000002,21.611728257417568,-44.09,35.82,79.91,3.725,25.212107341724057,781.25,790.6982421875,0.0,0.04559597630883185,0.45500567571246353,62.36632744132823,0.19513195798668423,62.91263784010332,0.0020833333333333333,2,0.780391075,0.005791994327176231,-9.992711261043627e-06,35.46000000000001,0.012382783747336491,6.87500186496343e-06,76.21833333333333,0.30870788061783455,0.8400000000000034,-0.00044406262045969415
S063,12987.0,13016.984375,N2,-0.31434375,19.99235356399214,-42.54,35.02,77.56,2.9050000000000002,25.132732890450345,796.875,796.630859375,0.0,0.06441510347391792,0.4465142774872938,62.37475212197675,0.190081706876242,62.91263784010332,0.0010416666666666667,1,0.7628068999999998,0.0052328256665654955,-8.946548433851019e-06,35.461333333333336,0.015216949614017098,-3.5416676274051633e-06,76.07233333333333,0.27009483931060685,0.6800000000000068,0.0004289931719274023
S063,13017.0,13046.984375,N2,0.31884895833333327,18.62978996789872,-38.01,30.04,68.05,3.7350000000000003,29.167084463851015,796.875,799.12109375,0.0,0.0,0.47761978573151903,62.340181895849625,0.2032351488171089,62.489999199871974,0.0,0,0.7471124833333332,0.004291503211741645,-7.081126486850709e-06,35.465333333333334,0.01431394036905512,1.3194448023664668e-06,75.36233333333332,0.287514444081607,1.0899999999999892,-0.0002089236677852814
S063,13047.0,13076.984375,N2,-0.05698958333333337,18.476065516745123,-37.1,29.61,66.71000000000001,3.2,24.158425899195375,812.5,804.8258463541666,0.0,0.05581428468591172,0.49998263858747016,62.28033762777695,0.21448380694746896,62.91263784010332,0.0020833333333333333,2,0.7336602083333332,0.003717531198918248,-6.02047841267318e-06,35.47066666666668,0.01209223809814457,-3.1250008477109985e-06,75.05099999999999,0.18459595517417718,0.5500000000000114,-0.0003041320269455366
S063,13077.0,13106.984375,N2,0.10565624999999994,18.993788655400024,-37.83,28.46,66.28999999999999,4.109999999999999,22.39772581635894,812.5,813.671875,0.03225804701500421,0.07880950133074055,0.4997872811395753,62.27452202580394,0.21782590370667335,62.91263784010332,0.00625,6,0.721916125,0.0030907396109520974,-4.825059685617313e-06,35.47133333333334,0.013597385369580654,-5.138890282902009e-06,74.67200000000001,0.2766514052015655,0.7199999999999989,-0.0004779862407731797
S063,13107.0,13136.984375,N2,0.07452083333333344,17.77102032276329,-36.7,29.05,65.75,3.09,35.54776555064823,828.125,831.6243489583334,0.045595976308831845,0.08507936450096985,0.4647643051859728,62.20357017912127,0.2021310741426535,62.91263784010332,0.32395833333333335,169,0.7118161583333333,0.003684824466637527,-5.9014831546992035e-06,35.47766666666667,0.014533486237728047,7.673613192711594e-06,73.79833333333333,0.46973810670296867,1.3499999999999943,-0.0008144099431450595
S063,13137.0,13166.984375,N2,-0.2931875,17.195380970331648,-33.61,32.04,65.65,2.915,26.020453396078107,828.125,824.0071614583334,0.0,0.07880950133074055,0.32226244211391164,62.11722592778452,0.1415439975482242,62.91263784010332,0.12291666666666666,99,0.703072075,0.003340956270696811,-5.109571915573981e-06,35.48800000000001,0.010770329614269637,-8.333335593895678e-06,73.14333333333335,0.1105843067025736,0.3499999999999943,9.472224791727664e-05
S063,13167.0,13196.984375,N2,0.12682812499999999,16.907545418381275,-33.99,25.37,59.36,3.5949999999999998,40.70287478633031,812.5,815.3076171875,0.0,0.08507936450096985,0.3172537731804339,62.11589918627774,0.1386901108521309,62.489999199871974,0.12083333333333333,96,0.6944561916666667,0.0026678914311238215,-3.899665337365825e-06,35.49100000000001,0.010440306508910854,7.256946413017801e-06,72.555,0.3066893107581891,0.9699999999999989,0.00030593758299088034
S063,13197.0,13226.984375,N2,0.00889062500000007,16.144449719269996,-33.07,25.76,58.83,3.215,29.002973468022372,812.5,818.6116536458334,0.045595976308831845,0.10152910775842669,0.254795584597841,62.10029375356742,0.12236851706623594,62.91263784010332,0.08125,63,0.6868759333333334,0.002907085931344698,-4.258819731667694e-06,35.496,0.012806248474865518,2.2222228250385487e-06,73.28066666666668,0.06752448115724542,0.19999999999998863,-1.2500003390842525e-05
S063,13227.0,13256.984375,N2,0.13195833333333337,17.158006689611817,-32.91,27.44,60.349999999999994,3.49,28.441952041325404,812.5,809.3668619791666,0.0,0.12401959270615269,0.13188915142607022,62.07866648350296,0.0763825678694319,62.489999199871974,0.03333333333333333,31,0.67932755,0.0025164373555021627,-3.5303060791846147e-06,35.501999999999995,0.014696938456698854,-3.819445480534926e-06,74.03866666666666,0.28260376658652,0.9399999999999977,0.0003823612148332268
S063,13257.0,13286.984375,N2,-0.03198958333333337,17.445948891024095,-36.61,26.09,62.7,3.42,31.65729748004502,812.5,814.8518880208334,0.05581428468591173,0.1356408400888169,0.16232629604869594,62.086508708919624,0.10113359439695947,62.91263784010332,0.04791666666666667,42,0.6742029166666668,0.0021782435147894292,-2.6464060998280416e-06,35.494666666666674,0.012036980056845156,6.908056249375607e-19,73.76933333333334,0.10497407087255144,0.35999999999999943,9.37500254313063e-06
S063,13287.0,13316.984375,N2,-0.07555729166666661,17.34438958586011,-35.6,25.47,61.07,3.1900000000000004,17.4340339962338,812.5,817.08984375,0.03225804701500421,0.13564084008881688,0.18483053424390916,62.0883735013202,0.09958728446922528,62.8728876384726,0.05520833333333333,47,0.6689180583333335,0.00224752189198025,-2.855890748668259e-06,35.491333333333344,0.009568466729605091,-9.722224859539115e-07,73.65633333333335,0.23070158695211188,0.5700000000000074,-0.00038607649361884253
S063,13317.0,13346.984375,N2,-0.11176041666666668,16.264342382984108,-33.59,24.82,58.410000000000004,3.2199999999999998,37.46027431756235,812.5,811.767578125,0.07198059875565237,0.14627537173085559,0.1529193630552463,62.088192886089914,0.10729619297982372,62.91263784010332,0.05,43,0.6644234166666666,0.0017699078204967726,-1.797561685536508e-06,35.498333333333335,0.00968962790249871,-7.604168729428728e-06,73.964,0.22886094759336642,0.769999999999996,0.00017715282583355763
S063,13347.0,13376.984375,N2,0.089265625,16.02111607679409,-32.45,24.54,56.99,3.585,15.981415392668337,812.5,819.8893229166666,0.05581428468591173,0.11987768650679835,0.07880950133074055,62.07587379171914,0.07539669239529714,62.8728876384726,0.023958333333333335,23,0.65999255,0.0021449361600833733,-2.2325014736603058e-06,35.49766666666667,0.012565384549980359,8.715280141948668e-06,73.73333333333333,0.023711225658370465,0.0799999999999983,-4.583334576642187e-06
S063,13377.0,13406.984375,N2,0.0036718749999999764,16.70820106161195,-32.42,25.64,58.06,3.3049999999999997,16.400169577923627,812.5,807.177734375,0.05581428468591172,0.1356408400888169,0.06441510347391793,62.076760284642354,0.07772320364185585,62.8728876384726,0.026041666666666668,24,0.6553695416666666,0.0022616022008590773,-2.9091451033922487e-06,35.507999999999996,0.014696938456699334,-5.9027793790090974e-06,73.404,0.13991902420090424,0.4300000000000068,-9.666669288918563e-05
S063,13407.0,13436.984375,N2,-0.05763020833333332,15.65303716730944,-32.29,27.17,59.46,3.0549999999999997,16.79440660106823,812.5,807.9915364583334,0.032258047015004204,0.1462753717308556,0.04559597630883185,62.07551935393367,0.06997813521590383,62.8728876384726,0.025,24,0.6525617333333333,0.0017233585607437645,-1.0736973398701438e-06,35.5,0.01341640786499801,2.0138894351908867e-06,73.887,0.13513326755466262,0.5,0.00024197923230773454
S063,13437.0,13466.984375,N2,-0.04707291666666664,16.390871375647375,-36.95,54.79,91.74000000000001,3.2300000000000004,63.49762969628507,828.125,851.9938151041666,0.12909944487358055,0.07880950133074056,0.5015211236827418,62.22429043366513,0.21930958382215948,64.10148204214939,0.36354166666666665,38,0.6494868750000002,0.0016948847186092147,-7.157486750620382e-07,35.508666666666656,0.014079141387962346,-5.833334915726799e-06,73.82433333333334,0.22219635960614217,0.730000000000004,-0.00038593760469227476
S063,13467.0,13496.984375,N2,0.24867708333333335,14.456937039442051,-29.85,22.9,52.75,3.385,23.488746002227423,828.125,822.8108723958334,0.0,0.0,0.2943625410196677,62.44922052540434,0.12525614854645778,62.489999199871974,0.0,0,0.6462411916666667,0.0018316370332566484,-1.2855309476809255e-06,35.501,0.010440306508910447,2.673611836375366e-06,73.01433333333334,0.13600694426715312,0.5500000000000114,-0.00018704866185130544
S063,13497.0,13526.984375,N2,-0.07589583333333332,16.153552522380828,-35.16,25.25,60.41,3.455,36.32724902191853,812.5,813.2731119791666,0.0,0.0,0.3121091305537215,62.44345832140348,0.13280761704231486,62.489999199871974,0.0,0,0.6424511916666666,0.00203454491347096,-2.171861049224458e-06,35.50633333333333,0.015380362660078903,1.2847225707257862e-06,72.96866666666668,0.20488587609257589,0.5499999999999972,0.00033520842426443856
S063,13527.0,13556.984375,N2,-0.02258333333333328,15.728162191767847,-31.97,23.84,55.81,3.3049999999999997,14.54170962657977,812.5,812.4918619791666,0.0,0.0,0.3487079325484613,62.42971768109375,0.14838101494612363,62.489999199871974,0.0,0,0.639023925,0.0019073031360296048,-1.4780184130909432e-06,35.51499999999999,0.017464249196572898,1.0173613870880695e-05,73.61966666666667,0.1401304947381397,0.519999999999996,0.0002029514439429926
S063,13557.0,13586.984375,N2,0.0002187500000000453,14.99445062466384,-30.01,22.17,52.18000000000001,3.28,15.15780166775715,796.875,804.3131510416666,0.0,0.0,0.36407553922762914,62.42306898416967,0.15492018673864041,62.489999199871974,0.0,0,0.6361092583333333,0.0019075597434760714,-1.3727136970251897e-06,35.515333333333324,0.016478942792411203,-1.5902782091683873e-05,74.155,0.14391548445760374,0.5700000000000074,0.0002239931163175772
S063,13587.0,13616.984375,N2,0.057651041666666666,15.336627537433975,-32.7,26.0,58.7,3.385,19.936375545414393,812.5,814.4287109375,0.0,0.04559597630883184,0.44755799593150186,62.372976138252305,0.19195743540623067,62.91263784010332,0.0020833333333333333,2,0.6343368583333332,0.0018217241846477702,-9.934670663701958e-07,35.504999999999995,0.011180339887499374,-1.979167203550206e-06,74.25533333333333,0.07406003570677423,0.21999999999999886,-0.00013138892453041286
S063,13617.0,13646.984375,N2,-0.009671875000000026,15.994256053822905,-32.58,23.52,56.099999999999994,3.245,18.18653753471583,796.875,791.50390625,0.0,0.0,0.45825756949558394,62.362344218929856,0.19499620433512438,62.489999199871974,0.0,0,0.6317105000000001,0.0020808151127222636,-1.996947590317821e-06,35.510999999999996,0.018138357147217222,-9.965280481033675e-06,74.32999999999998,0.11639014849490611,0.47999999999998977,0.00018875005120172505
S063,13647.0,13676.984375,N2,-0.22276041666666646,19.306212956824716,-36.89,28.64,65.53,3.46,12.439453993873288,781.25,779.19921875,0.0,0.0,0.46393241957267395,62.356582014928996,0.1974109472632586,62.489999199871974,0.0,0,0.6287639083333334,0.0019289352762419194,-5.297030516772547e-07,35.508666666666656,0.016679994670929087,2.4305562148856173e-06,75.594,0.5040343903610807,1.7199999999999989,0.0009077085795650438
S063,13677.0,13706.984375,N2,0.005708333333333323,20.947990907004197,-41.33,35.53,76.86,3.54,29.28383317932218,750.0,752.3111979166666,0.06451609403000842,0.09090593428863095,0.4422166387140533,62.37842153509889,0.19155536060731493,62.91263784010332,0.003125,3,0.6283581916666667,0.0020678780802867716,1.755781509272311e-06,35.517666666666656,0.01584999123729193,-5.798612684085774e-06,77.258,0.5624256987964421,1.7800000000000011,0.0010064586063527022
S063,13707.0,13736.984375,N2,0.18415104166666663,23.10452516572103,-45.73,35.7,81.43,4.025,14.98243893396239,734.375,739.599609375,0.0,0.1462753717308556,0.4996081363734538,62.29493778010763,0.22149561135918952,62.91263784010332,0.011458333333333333,11,0.8530231583333332,0.16478575941809998,0.0002845520079622417,35.538666666666664,0.014996295838934724,1.3888892656490445e-05,79.12466666666666,0.5188495821419622,1.8299999999999983,0.0009318752527873406
S063,13737.0,13766.984375,N1,-0.04546354166666684,25.934265752043746,-106.77,71.67,178.44,4.04,21.617866174892463,718.75,715.4866536458334,1.4502813424374674,0.9900196406581481,2.3499556733408116,62.3310530897269,0.6552892941137135,69.0941386804988,0.05416666666666667,24,1.7010613166666668,0.222674376608348,0.00019207567536775043,35.56133333333334,0.016069294390926855,1.9791672035503517e-05,81.318,0.5314157192506316,1.8499999999999943,0.0009381252544827612
S063,13767.0,13796.984375,N2,0.12123437499999994,21.757900329709397,-42.89,34.8,77.69,3.54,28.41261630870119,750.0,751.6845703125,0.0,0.07198059875565235,0.4249068014642218,62.24862764373357,0.1581870363703741,62.94441992742486,0.23854166666666668,158,2.3367926000000003,0.32610476377457803,0.0004554953996027016,35.58666666666668,0.01468181036369686,1.7152782430768214e-05,81.999,0.22484587313683577,0.6199999999999903,-0.00036934037796776566
S063,13797.0,13826.984375,N2,-0.3185208333333333,22.369240613497947,-42.9,34.68,77.58,3.11,15.20583040726701,734.375,741.0807291666666,0.0,0.08507936450096985,0.39523529384405937,62.23410376290575,0.14675544696686998,62.94441992742486,0.2,136,2.6967838166666667,0.2402828932262963,8.123227290371984e-05,35.60933333333334,0.010934146311237432,5.069445819618625e-06,81.32133333333334,0.21955611785802973,0.769999999999996,-0.00037868065827925847
S063,13827.0,13856.984375,N2,0.21685937499999997,24.28607041342955,-72.97,86.56,159.53,3.435,19.685734462793608,750.0,749.5849609375,0.1788241639075162,0.07216126567549165,0.8154586888763212,62.546640796367456,0.30621358044469543,64.60650122085238,0.346875,118,3.081786433333334,0.13798822806540015,0.00010966806620770019,35.62133333333334,0.013349989596334324,1.0486113955652544e-05,80.66733333333333,0.12206373562838244,0.4300000000000068,6.756946277383254e-05
S063,13857.0,13886.984375,N1,-0.6287395833333335,26.494831443189376,-79.14,74.58,153.72,0.495,56.84368289055526,750.0,730.2815755208334,16.666745800593386,11.516642547008027,6.121611520193573,62.92186313860864,1.4435826380461103,74.97332859090625,0.090625,45,2.654488733333333,0.19611937040616928,-0.00035110591642413086,35.648999999999994,0.008306623862916421,1.1458336441603742e-06,80.65433333333334,0.20105858737083715,0.6200000000000045,0.00019260421891390542
S063,13887.0,13916.984375,N1,0.40371875,22.44799421774839,-45.38,34.23,79.61,4.475,40.00752269021877,781.25,774.5849609375,0.09636964965693294,0.49010942478582153,0.4311933839647821,62.42679082094291,0.3490407782810241,63.52164985262898,0.3104166666666667,195,2.171749108333333,0.10588434110471638,-0.0001836150600084255,35.64433333333332,0.01054619467970215,-3.993056638740698e-06,80.60899999999998,0.36194244478001414,1.1299999999999955,-0.0005730209887752249
S063,13917.0,13946.984375,N2,0.11677083333333345,24.51871429578468,-46.53,34.98,81.50999999999999,4.385,23.891011619391854,765.625,767.96875,0.22634628092568448,0.4030913530316532,0.48491904930101487,62.28828260736688,0.3708883364693177,63.52164985262898,0.17083333333333334,130,1.8286814416666666,0.08515459852016175,-0.00015316252614000822,35.649999999999984,0.00894427190999738,7.22222418137448e-06,79.09966666666666,0.5431358536826268,1.7800000000000011,-0.0009178821934359252
S063,13947.0,13976.984375,N2,0.1925416666666667,24.02769780634973,-45.41,35.33,80.74,3.95,11.938115976717638,765.625,760.2620442708334,0.2582808246366733,0.3708040718792368,0.4924682290231749,62.26134917650045,0.3728029710425483,63.52164985262898,0.14166666666666666,115,1.6000661250000001,0.053073670260868296,-9.550354652331452e-05,35.65633333333332,0.009122621455602086,-4.548612345001507e-06,78.21066666666665,0.2912379706624041,0.7900000000000063,0.00046972234964256387
S063,13977.0,14006.984375,N2,-0.07687500000000001,25.407248955863132,-49.99,40.39,90.38,3.3,18.82489927314738,750.0,749.4873046875,0.26339134382131846,0.3781752147557473,0.4977978850648122,62.24561269860562,0.37548827125968914,63.52164985262898,0.13541666666666666,109,1.4509098249999999,0.02972228395291499,-5.227117064647639e-05,35.672999999999995,0.011874342087039405,1.3368059181875498e-05,79.23233333333333,0.3167615647279334,1.0499999999999972,0.0005671182093962152
S063,14007.0,14036.984375,N2,0.09679166666666665,24.54552729152701,-46.0,38.6,84.6,4.195,21.578236548838056,781.25,771.8343098958334,0.3790736493047521,0.3992166265707824,0.4871793817476268,62.23748493295829,0.3948238676365316,63.52164985262898,0.13645833333333332,103,1.3536566416666664,0.025194871201230554,-4.510586271317888e-05,35.70633333333333,0.016224124698183406,1.4409726131110673e-05,79.21566666666668,0.26273793449409355,0.7800000000000011,-0.00040850705525907706
S063,14037.0,14066.984375,N2,-0.028078124999999923,23.304875587527743,-72.46,42.6,115.06,3.425,49.58775367053298,781.25,769.7998046875,0.8159322537492517,0.459614686147236,1.063724784268312,62.463282023635294,0.30933881499887733,63.56099432828282,0.28958333333333336,144,1.27843025,0.022651209988375904,-4.065454184422251e-05,35.727999999999994,0.016613247725835667,3.125000847710334e-06,78.55499999999999,0.2560175775215432,0.9899999999999949,-0.00037274315666860835
S063,14067.0,14096.984375,N2,-0.24233854166666677,21.88833194449666,-48.34,36.69,85.03,3.4400000000000004,37.77349048406091,765.625,767.4397786458334,0.16862135013758556,0.18257121422581626,0.48880589869315433,62.53291958292063,0.26341052114076186,63.324560795950255,0.403125,136,1.2064814833333335,0.018616599450930586,-3.336421043951021e-05,35.74400000000001,0.0128062484748677,1.7361115820617899e-06,77.93866666666666,0.1682801896309313,0.519999999999996,0.00022354172730624106
S063,14097.0,14126.984375,N2,0.19241145833333337,22.27443826142316,-42.08,34.27,76.35,4.045,22.465499930550187,796.875,798.5432942708334,0.20684625513624577,0.0,0.38085561340735,62.72054152166092,0.2378821058361108,62.8410693734599,0.0,0,1.1495545166666667,0.015239292925407946,-2.732031253263685e-05,35.75266666666666,0.015260697523014025,9.583335932980636e-06,77.26733333333331,0.6525944801755192,1.730000000000004,-0.0011297919731423547
S063,14127.0,14156.984375,N2,-0.11683854166666663,20.62392942309809,-43.93,37.76,81.69,3.645,33.82033002052079,781.25,789.35546875,1.43376779994763,0.3057588891003643,1.2104579023383395,62.62216120775509,0.7298177877164216,74.58552138317464,0.009375,6,1.0992256000000002,0.013887393786812577,-2.4801351345852716e-05,35.75866666666666,0.012310790208414246,7.013890791528915e-06,76.93900000000001,0.30473321665570474,1.0899999999999892,-0.00025559034711109614
S063,14157.0,14186.984375,N2,0.02769791666666664,20.037258880655617,-41.02,29.94,70.96000000000001,3.76,20.573970912527578,812.5,818.0257161458334,0.05581428468591172,0.2795007329547138,0.0,62.5293961799183,0.1393019794653224,62.976185975335156,0.084375,69,1.0558684583333333,0.011750992857269433,-2.0954187758839993e-05,35.77466666666667,0.01606929439092493,1.270833678069023e-05,75.48833333333333,0.33205504898368227,1.1099999999999994,-0.0005962154395115669
S063,14187.0,14216.984375,N2,0.15231770833333327,19.87349988031327,-50.11,32.69,82.8,3.9450000000000003,17.01172622464436,796.875,800.87890625,0.11632669960790026,0.28558389261690204,0.15612494995995993,62.522341309234314,0.1694467810585376,63.13477647065839,0.08958333333333333,76,1.0179456583333333,0.010934635311321418,-1.9384505041369646e-05,35.779333333333334,0.012364824660659654,-5.277779209466953e-06,74.43866666666666,0.3135998866212962,0.9100000000000108,-0.0005611112633222853
S063,14217.0,14246.984375,N2,-0.24408333333333337,21.259141026404514,-44.88,45.38,90.26,3.0,18.73536951972614,796.875,800.8219401041666,0.10152910775842672,0.1529193630552463,0.12447371850002002,62.48838450356206,0.11959153391372242,63.03967004989794,0.025,22,0.984496275,0.008963676039031553,-1.58115136207448e-05,35.77733333333333,0.012092238098143367,2.5694451414506834e-06,74.58,0.2504795400826183,0.8900000000000006,0.0004466667878327876
S063,14247.0,14276.984375,N2,0.11540104166666673,19.45629255926384,-39.82,32.97,72.78999999999999,3.95,27.14056057782953,796.875,807.3811848958334,0.08507936450096987,0.17116012950028855,0.032258047015004204,62.4991388423996,0.10377359228240508,62.976185975335156,0.030208333333333334,28,0.9643890250000001,0.00959307276064565,5.3964183475527155e-06,35.779333333333334,0.014360439485691132,-4.583334576641645e-06,74.67866666666667,0.21659075593283256,0.5600000000000023,-0.0003514584286725358
S063,14277.0,14306.984375,N2,0.18570833333333334,19.483297181986348,-39.53,31.82,71.35,3.975,16.919395461584166,796.875,801.8636067708334,0.06441510347391795,0.16532992583014122,0.03225804701500421,62.50139639907388,0.093709653537872,63.03967004989794,0.029166666666666667,27,0.9611544916666667,0.00771161585747526,-1.3617990022241217e-05,35.77266666666667,0.01611072796479248,-5.138890282902922e-06,74.66266666666667,0.02954469307487966,0.12000000000000455,2.6250007120770957e-05
S063,14307.0,14336.984375,N2,-0.1768333333333333,20.352832738787384,-39.61,30.86,70.47,3.59,26.37381639079667,796.875,806.6324869791666,0.05581428468591172,0.17116012950028855,0.0,62.50254905880235,0.09189388085261883,62.976185975335156,0.030208333333333334,26,0.9374634166666667,0.006488467092443502,-1.1416994416502388e-05,35.766666666666666,0.013743685418725672,-6.180557232139158e-06,74.81266666666667,0.13698986174977237,0.37999999999999545,0.00013444448091484
S063,14337.0,14366.984375,N2,-0.0028489583333333695,16.71793624991892,-36.38,29.2,65.58,2.76,18.90558576161393,812.5,811.7757161458334,0.032258047015004204,0.1998263134713633,0.03225804701500421,62.50898379902526,0.10137922138792646,62.976185975335156,0.041666666666666664,36,0.9168044583333333,0.005516437991578495,-9.532810528648694e-06,35.763333333333335,0.018856180831641953,-4.166667796938427e-07,74.77266666666667,0.07945369021567697,0.3300000000000125,-4.048612209367341e-05
S063,14367.0,14396.984375,N2,0.07941666666666676,17.642800200947566,-49.07,66.84,115.91,3.13,28.64180912303894,828.125,835.3759765625,0.23477743228073122,0.17116012950028855,0.13297069826552851,62.5014516216668,0.17912802993685903,65.7723346096214,0.03229166666666667,24,0.898942625,0.005093368209516014,-8.805020834695325e-06,35.766,0.014047538337137157,3.1944453109934715e-06,73.71700000000001,0.3713681910629023,1.269999999999996,-0.0006349654500231778
S063,14397.0,14426.984375,N2,-0.07019270833333342,17.70254660983216,-35.37,27.86,63.23,3.505,32.59573895587316,812.5,806.8359375,0.0,0.11987768650679832,0.06441510347391796,62.494846068710224,0.0680552340320416,62.976185975335156,0.014583333333333334,14,0.8813905833333333,0.004964099091784481,-8.582469342032688e-06,35.763333333333335,0.012995725793079676,-5.69444598916272e-06,72.575,0.2587759648808227,0.8600000000000136,-0.00033281259028119365
S063,14427.0,14456.984375,N2,0.03301562499999996,16.843323350186047,-33.26,24.91,58.17,3.6550000000000002,24.139393236983217,812.5,815.4052734375,0.0,0.16232629604869594,0.09636964965693294,62.498119209690294,0.09515032670665158,62.976185975335156,0.027083333333333334,25,0.8666783666666668,0.004422326212777854,-7.579379660204966e-06,35.754666666666665,0.01231079020841485,-5.902779379010085e-06,73.606,0.2974626026914979,1.0300000000000011,0.0004045139986203335
S063,14457.0,14486.984375,N2,-0.16639583333333335,17.718616167324768,-36.06,29.59,65.65,3.005,18.130208213519037,796.875,804.3375651041666,0.0,0.1682735042192389,0.11110243021644486,62.497449582577914,0.10228557961256039,62.976185975335156,0.029166666666666667,27,0.8518594833333334,0.004337723790544478,-7.268015426436473e-06,35.75933333333332,0.011234866364236902,-1.3888892656494317e-06,74.402,0.2666758331757879,0.8700000000000045,0.0004377778965326349
S063,14487.0,14516.984375,N2,-0.009682291666666683,17.034046609936173,-35.24,25.41,60.650000000000006,3.45,19.834452108676683,812.5,811.0677083333334,0.0,0.16532992583014122,0.12801909579781012,62.49469978304957,0.10703905752667087,62.976185975335156,0.028125,27,0.8387593916666667,0.002785321765660818,-4.359592111434487e-06,35.751999999999995,0.016613247725838148,4.861112429773751e-07,73.91866666666667,0.2043482865654169,0.75,-1.1527780904888879e-05
S063,14517.0,14546.984375,N2,0.09662500000000003,19.073901054107285,-36.97,28.98,65.95,3.7199999999999998,16.735411963978002,796.875,788.6393229166666,0.0,0.1874276480775685,0.10642856726723121,62.50155553322497,0.10865508360220515,62.976185975335156,0.036458333333333336,34,0.8266522666666667,0.004051290049135243,-6.6573807121801e-06,35.74933333333333,0.0131487219488794,4.375001186795711e-06,74.48700000000001,0.13904795335902467,0.5999999999999943,0.00023420145242009983
S063,14547.0,14576.984375,N2,0.12627604166666664,16.543232885661066,-35.13,28.51,63.64,3.31,43.29469226450393,828.125,823.9990234375,0.03225804701500421,0.27480856657660596,0.07880950133074056,62.52593531002419,0.1411155791127718,62.976185975335156,0.08125,71,0.8154099666666668,0.003894052066792242,-6.348338961680496e-06,35.75666666666666,0.014907119850000398,-3.88888994381804e-06,75.23666666666666,0.2895552144621507,0.8599999999999994,-0.00015312504153782659
S063,14577.0,14606.984375,N2,-0.059703125000000044,16.258030626732804,-33.55,24.53,58.08,2.715,15.329197367258686,812.5,804.6549479166666,0.0,0.2599996661322642,0.05581428468591172,62.523772169647174,0.12827838757172855,62.976185975335156,0.071875,64,0.8044557999999999,0.0033604163744988475,-5.193796981824263e-06,35.75599999999999,0.012806248474867698,-3.5416676274060514e-06,74.33433333333332,0.21524688667254196,0.8199999999999932,-0.0003823264926015876
S063,14607.0,14636.984375,N2,0.07897395833333333,16.84111705579003,-33.19,27.16,60.349999999999994,3.43,19.18109930901894,796.875,797.6399739583334,0.0,0.23437268517375387,0.05581428468591172,62.51667757887938,0.11824902440012526,62.976185975335156,0.058333333333333334,54,0.7939822583333334,0.003151032929839125,-4.674348273206442e-06,35.75599999999999,0.015620499351815234,6.180557232139701e-06,73.96566666666666,0.3374678585518265,1.0400000000000063,0.0005125348612562009
S063,14637.0,14666.984375,N2,-0.08348437499999996,18.138114020009933,-35.28,28.41,63.69,3.08,16.9269581325498,781.25,787.6953125,0.03225804701500421,0.2382571993782256,0.03225804701500421,62.5180998010652,0.11950145347954597,62.976185975335156,0.06041666666666667,51,0.7849179083333333,0.003204190748056452,-5.019327533454731e-06,35.751333333333335,0.01257864150941077,-3.854942103446209e-22,75.394,0.3596442686878237,1.1400000000000006,0.0006422223964361958
S063,14667.0,14696.984375,N2,-0.13714062500000004,18.133717191125616,-39.9,37.42,77.32,2.785,30.344229889399106,796.875,800.3092447916666,0.03225804701500421,0.24578919095210203,0.0,62.52069197759287,0.1188120769098084,62.976185975335156,0.06354166666666666,53,0.7769852916666667,0.0026442885287471674,-3.875684862110676e-06,35.748666666666665,0.013597385369582885,6.944446328247163e-07,75.88366666666667,0.04520201568760476,0.15000000000000568,4.343751178318133e-05
S063,14697.0,14726.984375,N2,0.20284375000000004,17.553129440731812,-36.67,29.96,66.63,4.05,27.359846917480766,812.5,801.85546875,0.05581428468591172,0.27480856657660596,0.05581428468591172,62.52618877046312,0.14321140693684248,62.976185975335156,0.08229166666666667,69,0.7686256166666666,0.00356732601814331,-5.594386934241238e-06,35.751999999999995,0.011944315244781145,1.180555875802017e-06,75.53999999999999,0.2007652028282462,0.7199999999999989,-0.0003262500885010013
S063,14727.0,14756.984375,N2,-0.10571874999999993,18.501911522981395,-40.72,34.12,74.84,3.225,32.67773600283112,781.25,782.3893229166666,0.08533405557962581,0.30547663122114954,0.16296674422170376,62.52625282156132,0.17078181263347686,63.03967004989794,0.09895833333333333,83,0.75966805,0.0026822379550479783,-4.087608313695809e-06,35.75733333333333,0.012092238098146593,2.291667288321563e-06,75.24433333333333,0.2602138009833855,0.7399999999999949,0.00044468762062923364
S063,14757.0,14786.984375,N2,-0.14246354166666675,18.317622154059165,-35.93,26.54,62.47,3.335,14.776348994235343,781.25,788.2731119791666,0.0,0.3911440995301121,0.1356408400888169,62.571579301379415,0.20556117788262768,62.976185975335156,0.18645833333333334,138,0.7545967416666667,0.0022063406638437627,-2.3578641378754633e-06,35.75933333333333,0.012364824660662872,-6.527779548552329e-06,75.77933333333334,0.15411972258244278,0.6000000000000085,0.00010020836051659311
S063,14787.0,14816.984375,N2,0.11376041666666678,20.24952209376639,-38.94,32.16,71.1,3.3049999999999997,14.814515353637706,750.0,750.048828125,0.0,0.3560473960919935,0.1356408400888169,62.552334408184,0.1888608483840453,62.976185975335156,0.146875,118,0.7480093666666666,0.0029615096458094187,-4.099330105070015e-06,35.75266666666666,0.016918103387268076,3.0555563844288238e-06,77.057,0.4762292865136845,1.730000000000004,0.0008434377287971263
S063,14817.0,14846.984375,N2,-0.10960937499999998,20.999790289218655,-41.67,32.57,74.24000000000001,3.5700000000000003,14.835536089584652,750.0,750.1220703125,0.0,0.3476343040826092,0.1496378730654628,62.54604386371019,0.18736416992896426,62.976185975335156,0.1375,112,0.7483402333333333,0.016140643262033332,1.4273897535236949e-05,35.76733333333333,0.014360439485692801,7.22222418137559e-06,79.06166666666667,0.6690494916089705,2.1200000000000045,0.0012044100489393577
S063,14847.0,14876.984375,N2,0.2524427083333333,24.379195712008755,-47.75,39.83,87.58,4.165,12.78586153811747,718.75,725.4150390625,0.0,0.33306629928922893,0.16532992583014122,62.53665589074591,0.18541395785475967,62.976185975335156,0.12395833333333334,99,1.443506075,0.6388584307080242,0.0010712585785749183,35.782000000000004,0.01326649916142053,5.0000013563374865e-06,80.99,0.43990150412715484,1.3999999999999915,0.0007900002143012727
S063,14877.0,14906.984375,N2,-0.03179687500000001,27.244018570412667,-51.82,41.3,93.12,4.015,12.74653087950649,718.75,724.3001302083334,0.03225804701500421,0.33422894006204795,0.194978186101819,62.53029505819143,0.1928728480615815,62.976185975335156,0.121875,105,3.1598816000000003,0.2797532318785135,0.0004362720892665172,35.805333333333344,0.009910712498213297,7.4305575712237454e-06,82.32666666666667,0.35747571790107524,1.2000000000000028,0.0006413196184135255
S063,14907.0,14936.984375,N2,-0.16303645833333338,26.323033293477106,-62.29,52.51,114.8,3.23,14.74280359251833,734.375,730.3141276041666,1.7060960960300242,0.8393267546323462,1.0832051206181281,62.59067169985094,1.3230738810870748,85.02940667792525,0.00625,2,3.5534807833333333,0.22129817376081012,0.00019228506301135605,35.81666666666667,0.01273664878302786,-9.72222485954503e-07,82.93133333333334,0.08808077101287261,0.28999999999999204,-0.00012451392266545267
S063,14937.0,14966.984375,N2,0.0972552083333333,25.754374697512436,-47.42,40.72,88.14,3.86,15.887732415175464,734.375,725.6266276041666,0.4236075534914362,0.045595976308831845,0.33538431521001233,62.573015736406724,0.3194943683352731,63.12685640834652,0.19791666666666666,150,4.010100808333333,0.20135315865912048,0.0001252853328139466,35.834666666666664,0.011175369742826985,7.152779718094105e-06,82.41633333333333,0.12186012017427644,0.4300000000000068,-0.0001539930973288574
S063,14967.0,14996.984375,N2,0.04890625000000019,26.23009340337057,-48.55,40.57,89.12,3.705,13.636057120548477,734.375,729.2236328125,0.46393241957267395,0.05581428468591172,0.36010794822525094,62.609793517913275,0.3479185406574625,63.655321851358195,0.2552083333333333,186,4.339956416666666,0.2580547882175277,0.0002651976487623831,35.850666666666676,0.016110727964790773,7.500002034503971e-06,82.765,0.08939612221269197,0.3100000000000023,0.00010045141613807812
S063,14997.0,15026.984375,N2,-0.01525000000000012,25.80193671146606,-47.55,39.49,87.03999999999999,3.835,11.810217043017884,734.375,732.51953125,0.4717715118306743,0.0,0.3817392125376811,62.60761436751338,0.35962694847209875,63.12685640834652,0.26666666666666666,192,4.543704608333333,0.16441072081686645,-7.576383934565946e-05,35.859,0.01920937271229697,1.0798614040421287e-05,82.72533333333334,0.06936537721050338,0.25,-8.708335695620458e-05
S063,15027.0,15056.984375,N2,-0.271359375,24.970012476969575,-49.91,39.4,89.31,2.83,15.6215324792824,734.375,734.9772135416666,0.48101883878273305,0.03225804701500421,0.3860847250676405,62.62365400331723,0.3533189392196316,63.655321851358195,0.275,187,4.664882841666667,0.29914575967578066,0.00019656055180136497,35.86566666666667,0.012023125864579045,-3.57638985904614e-06,82.26700000000001,0.16209359436243556,0.45000000000000284,-0.0002770486862653803
S063,15057.0,15086.984375,N2,0.36133333333333334,25.34013070937195,-58.9,40.6,99.5,4.665,31.941820926096383,734.375,740.9423828125,0.49495720914932523,0.03225804701500421,0.4618050334165803,62.68265465845545,0.3984511289327836,63.12685640834652,0.3854166666666667,226,4.711043541666666,0.27986285057211197,-1.0579164545129385e-05,35.87833333333333,0.01213351648213497,5.520834830955862e-06,82.051,0.17859357957851427,0.5700000000000074,-0.00026204868219636734
S063,15087.0,15116.984375,N2,-0.10865104166666661,23.792304279323066,-44.76,36.22,80.97999999999999,3.285,14.144095597348283,734.375,731.8359375,0.4944999139843763,0.03225804701500421,0.46599188565896726,62.67873697259397,0.39646124701215807,63.655321851358195,0.37604166666666666,224,4.78825105,0.328886754640759,7.272786695091889e-05,35.87166666666666,0.013437096247163839,1.9791672035511438e-06,81.43033333333334,0.14702569692252807,0.4200000000000017,5.80902935357762e-05
S063,15117.0,15146.984375,N2,-0.2117968749999999,24.638381887446606,-48.29,40.2,88.49000000000001,2.875,28.808133971142688,734.375,741.5364583333334,0.48465605645194976,0.045595976308831845,0.4801213315981238,62.686472049022925,0.40821405381762754,63.655321851358195,0.3958333333333333,258,4.6415661,0.3049653931390522,-0.00029256591530108373,35.870999999999995,0.01640121946685593,-4.270834491871152e-06,81.64966666666668,0.036192387167595964,0.10000000000000853,5.892362709517356e-05
S063,15147.0,15176.984375,N2,0.26345312499999995,23.690772781887276,-43.28,35.53,78.81,3.915,12.779501830918173,750.0,743.0338541666666,0.4759755606908824,0.05581428468591173,0.486447180457447,62.692543856148696,0.4007116729938535,63.655321851358195,0.39375,237,4.350392791666667,0.23466447460206866,-0.00019008551532267664,35.86366666666666,0.021522597943142603,1.274305901233123e-05,81.30933333333333,0.24273350727815884,0.6800000000000068,-0.00043152789483721227
S063,15177.0,15206.984375,N2,0.002171875000000038,23.928348179200388,-45.22,37.58,82.8,3.435,33.593819985329134,734.375,744.0999348958334,0.4735678336369094,0.0,0.49264997011626366,62.67838550077906,0.3968513773813556,63.12685640834652,0.3729166666666667,231,3.828535158333333,0.16493575325461307,-0.00029585916858158867,35.88333333333333,0.018678567634828863,-5.208334746184333e-06,80.96166666666664,0.09866047277855924,0.269999999999996,-0.00015982643224458207
S063,15207.0,15236.984375,N2,0.019640625000000005,23.815359640760544,-44.47,37.84,82.31,3.605,13.633834960836925,750.0,753.271484375,0.45452967144315476,0.03225804701500421,0.494022428359505,62.704427022489575,0.3948081153498192,63.655321851358195,0.4010416666666667,227,3.3504069583333336,0.11670000766540932,-0.0002104144461844743,35.879,0.017387735140992785,-7.291668644648045e-07,80.89166666666667,0.12171232020173295,0.4300000000000068,-9.663197065754389e-05
S063,15237.0,15266.984375,N2,-0.24465624999999994,23.729635360894246,-45.3,36.17,81.47,2.71,12.587137619841494,734.375,741.1783854166666,0.4564164460470528,0.0,0.49834687655788523,62.68059573401847,0.3955503700073607,63.12685640834652,0.371875,240,3.0014753916666663,0.0833691903746318,-0.00014992959253732436,35.874333333333325,0.017829438827087808,4.270834491871374e-06,80.41366666666666,0.15014400494932278,0.4399999999999977,0.00018072921569260386
S063,15267.0,15296.984375,N2,0.17111458333333326,23.298618599683916,-46.66,36.33,82.99,3.94,16.40342203623377,765.625,765.0146484375,0.42934361238988983,0.045595976308831845,0.4970573128143496,62.66088270064704,0.3889462376116643,63.12685640834652,0.33645833333333336,224,2.7397946749999997,0.07253072584006066,-0.0001306861459109554,35.88099999999999,0.01220655561573442,-3.12500084770419e-07,80.10933333333332,0.25196472416237664,0.75,-0.00043902789687171886
S063,15297.0,15326.984375,N2,0.011390624999999972,23.222730818314886,-43.08,37.13,80.21000000000001,3.435,12.342539431501011,734.375,739.9332682291666,0.4046120827409878,0.0,0.49727992759500045,62.684674571128156,0.3740417691834712,63.12685640834652,0.3489583333333333,229,2.5196227833333333,0.054746611914221595,-9.85220844515203e-05,35.871,0.019891371663779696,-1.7812504831949832e-05,79.86866666666668,0.014313940369057337,0.05000000000001137,-9.930558249393808e-06
S063,15327.0,15356.984375,N2,0.15246354166666667,23.372600831059557,-43.8,36.67,80.47,3.91,10.9647834418909,750.0,753.8981119791666,0.6438780886593017,0.12047360245667467,0.6213644260818284,62.69507754359144,0.4058962959381716,64.38167441127949,0.3385416666666667,199,2.3536762,0.04443954184387293,-7.99263862647532e-05,35.867,0.016763054614238826,-1.1458336441603742e-06,80.271,0.23914221710103656,0.7099999999999937,0.0004288542830008336
S063,15357.0,15386.984375,N2,-0.3789375000000001,21.925474935853966,-42.99,34.97,77.96000000000001,2.815,16.48593302631186,781.25,779.8421223958334,0.15925921720229852,0.06441510347391795,0.4956746507286812,62.948902822902895,0.2890502714011783,63.20601237224193,0.0,0,2.2131952083333335,0.03934129676876785,-7.085258540922995e-05,35.86300000000001,0.016155494421401486,-1.909722740268598e-06,79.68333333333334,0.6352759680292922,1.8999999999999915,-0.0011398614203183084
S063,15387.0,15416.984375,N2,0.09568750000000002,23.113918291760424,-42.3,36.6,78.9,3.425,10.710068281367432,750.0,748.876953125,0.13928372696486202,0.09636964965693294,0.49859176687947826,62.93479922608307,0.2933366199689838,63.20601237224193,0.0,0,2.0879602,0.03516701785281201,-6.330180536615809e-05,35.861000000000004,0.01699999999999783,-5.798612684084639e-06,78.64166666666667,0.08230363836969201,0.21999999999999886,0.0001156597535969381
S063,15417.0,15446.984375,N2,0.06641666666666662,23.77467081951691,-44.03,36.05,80.08,3.725,17.174253271862078,781.25,773.2177734375,0.1462753717308556,0.10152910775842672,0.49984372557830503,62.91923571870855,0.28864899143801215,63.20601237224193,0.0,0,1.9821348083333334,0.026033660923983206,-4.6428878263042035e-05,35.85033333333334,0.01702612371882725,3.576389859046979e-06,78.91266666666667,0.06884443009827049,0.269999999999996,5.305556994780421e-05
S063,15447.0,15476.984375,N2,0.1092083333333334,23.050548904308776,-43.22,36.04,79.25999999999999,3.645,15.21979392229239,750.0,759.8388671875,0.12801909579781012,0.10642856726723121,0.4998914812792428,62.92088053483391,0.29453531960353413,63.20601237224193,0.0,0,1.8927295666666666,0.02643903769105239,-4.751614309791207e-05,35.85266666666667,0.01711399687065597,2.0138894351906656e-06,78.61333333333333,0.24087802353519697,0.6000000000000085,-0.00041958344715263123
S063,15477.0,15506.984375,N2,-0.022479166666666637,23.338953746445718,-44.41,36.63,81.03999999999999,3.475,19.486832019971356,781.25,771.7041015625,0.1462753717308556,0.13188915142607024,0.4999121016488799,62.913723665846355,0.29552128664056565,63.20601237224193,0.0,0,1.8102858166666667,0.021613588648110294,-3.8842674165221944e-05,35.845000000000006,0.014999999999998912,7.465279802863143e-06,78.30666666666666,0.05647024782032419,0.20000000000000284,4.72916794953576e-05
S063,15507.0,15536.984375,N2,0.1636718749999999,22.610270861810065,-41.58,34.95,76.53,3.51,14.632659326554892,765.625,763.1510416666666,0.1428261375083551,0.10152910775842672,0.4994745502914926,62.92559696901946,0.2931087838964098,63.20601237224193,0.0,0,1.7403762916666667,0.019056981248086764,-3.4227347609415044e-05,35.85900000000001,0.016999999999997885,-3.3680564691992916e-06,78.41200000000002,0.04315862215904225,0.13000000000000966,-6.27777948073508e-05
S063,15537.0,15566.984375,N2,-0.22300000000000011,22.133620657177474,-40.69,34.06,74.75,2.7,30.43854349111391,781.25,779.443359375,0.1428261375083551,0.12401959270615269,0.49881695979086366,62.92919542694476,0.2917411822065896,63.20601237224193,0.0,0,1.6774491833333334,0.017292937348805805,-3.1010959367122246e-05,35.846333333333334,0.0160173517023107,-3.298612005916573e-06,78.21066666666665,0.0692788247270069,0.19999999999998863,7.763890994978908e-05
S063,15567.0,15596.984375,N2,-0.2319739583333333,19.276705888340253,-40.3,32.85,73.15,2.785,40.78759155076111,812.5,811.1328125,0.11162856937182342,0.42809331796804406,0.4311933839647821,62.66337812760234,0.3564874525080475,63.31666447310692,0.21979166666666666,122,1.6194972833333332,0.016316487836532785,-2.9249352552450237e-05,35.838,0.014696938456698592,-2.7083340680166636e-06,77.32033333333332,0.5088384375767572,1.8400000000000034,-0.0009107294137178308
