participant_id,window_start_time,window_end_time,sleep_stage,BVP_mean,BVP_std,BVP_min,BVP_max,BVP_range,BVP_median,SDNN,median_nni,IBI_mean,x_std,y_std,z_std,mag_mean,mag_std,mag_max,movement_density,burst_count,EDA_mean,EDA_std,EDA_trend,TEMP_mean,TEMP_std,TEMP_slope,HR_mean,HR_std,HR_range,HR_trend
S065,6892.0,6921.984375,W,-0.13622916666666676,70.07892610188398,-403.79,361.17,764.96,3.115,57.699446355373524,1218.75,1189.8356119791667,10.508775887786467,3.2286417584127642,3.756902068332587,64.26727844522108,1.656818108430112,92.71461589199407,0.03229166666666667,14,0.5324248416666666,0.010135733859301803,-1.5374403259115447e-05,32.14199999999999,0.011944315244777536,1.0833336272062189e-05,53.476,1.0416096517729982,2.9299999999999997,-0.001032291946693779
S065,6922.0,6951.984375,W,-0.05640104166666617,49.59168086017132,-113.86,101.82,215.68,1.495,65.12229361903456,1156.25,1171.7610677083333,1.810487088676384,0.49025994911713244,2.254358962454121,64.28239813513659,0.3944384140218972,65.83312236253116,0.221875,106,0.444882775,0.02864825844749336,-1.7438912065677094e-05,32.15433333333332,0.006674994798166511,-3.437500932481443e-06,54.82366666666667,1.9826068417336025,5.229999999999997,0.003246910603003094
S065,6952.0,6981.984375,W,-1.6563593750000007,120.89706402653222,-795.19,418.63,1213.8200000000002,9.48,81.35024839140713,1062.5,1112.9231770833333,31.984882496787968,21.135158404656693,23.83325263589922,68.11388194162717,15.866996780804952,170.67220043111882,0.121875,46,0.3744748583333333,0.11698268202112194,-0.00014424470774867287,32.14733333333332,0.01631631766735941,-1.6388893334659745e-05,58.815666666666665,3.1954443439927958,9.740000000000002,0.004856077706184273
S065,6982.0,7011.984375,W,3.5455729166666687,194.18772464686313,-644.31,667.22,1311.53,5.945,0.0,1062.5,1062.5,33.24757351669839,13.094445917597618,19.756937704426697,66.78044213667596,12.40369762194885,152.12166183683374,0.09791666666666667,51,0.3616313666666667,0.12668299870147884,-4.5331879484559314e-05,32.16266666666665,0.010306416555827608,3.263889774275721e-06,69.70766666666668,2.0377482398198485,7.820000000000007,0.003466563440365517
S065,7012.0,7041.984375,W,1.7548489583333302,267.7751545913764,-913.43,1543.52,2456.95,-4.05,0.0,1062.5,1062.5,11.299034294941487,6.045981218039706,6.568470746125641,63.72811721577045,4.117289901503371,121.83185133617563,0.027083333333333334,10,0.5355628083333334,0.03993749863021298,3.218825200419161e-05,32.135999999999996,0.0296198131886952,-4.2291678139015454e-05,77.57933333333334,1.486413879853866,5.890000000000001,0.0009315280304709279
S065,7042.0,7071.984375,W,-4.289723958333334,116.67262863669747,-412.41,564.93,977.3399999999999,-6.445,0.0,1062.5,1062.5,3.640188487183352,0.8323164368445854,1.0383232802817242,63.59167258033266,0.48002961967647745,66.52818951391959,0.11041666666666666,85,0.5342819916666666,0.002705085693330972,-9.016727706360655e-07,32.11000000000001,0.013662601021279173,-4.1666677969490276e-07,77.51366666666667,0.6682488724685992,1.8900000000000006,0.0009720488747962427
S065,7072.0,7101.984375,W,0.4806822916666667,41.603813780047794,-237.62,141.01,378.63,1.295,0.0,1062.5,1062.5,0.6891898424156359,0.43951791574848104,0.43890646940878975,63.65943774436109,0.36220768234351264,64.45153217728807,0.11145833333333334,86,0.5364165583333335,0.0017260400091724107,1.7636842891938765e-06,32.14,0.0161245154965958,1.9097227402675026e-05,77.013,0.8862849428936501,3.1200000000000045,-0.0011349655856568975
S065,7102.0,7131.984375,W,1.529598958333335,191.33550306196335,-849.68,649.08,1498.76,-6.875,0.0,1062.5,1062.5,2.5251203216656606,0.875109120180005,1.0214236176030111,63.71955026610026,0.5582313313089392,69.07966415668217,0.10625,72,0.5343139916666666,0.0037801486401459485,-1.8128976271965842e-07,32.184999999999995,0.01962141687034993,2.7256951838367793e-05,70.06,3.0231164935101877,8.930000000000007,-0.005415209802303006
S065,7132.0,7161.984375,W,-1.0468072916666662,143.82349518399985,-709.48,509.71,1219.19,11.18,0.0,1062.5,1062.5,0.6763289066205551,0.21326455597059096,0.30607279453678266,63.73075367167335,0.2291173800234415,64.5445582524197,0.015625,14,0.5369608166666666,0.001497173776282791,1.135354040623375e-06,32.23133333333333,0.02109238935940887,3.0208341527871118e-05,61.217666666666666,2.2785107465672008,6.699999999999996,-0.0037304524008388673
S065,7162.0,7191.984375,W,-0.7889114583333324,141.08829103028475,-502.01,442.07,944.0799999999999,8.04,0.0,1062.5,1062.5,2.254295427237497,0.4422166387140533,0.47432334845428903,63.71391715618529,0.32321656531083814,64.87680633323437,0.04479166666666667,36,0.5391383,0.0018947704240883719,8.876169942537554e-07,32.272666666666666,0.016918103387265928,2.416667322229565e-05,60.748333333333335,1.1096548512437947,3.3999999999999986,0.0019713547014308538
S065,7192.0,7221.984375,W,1.0699583333333331,105.4140754452527,-498.65,360.09,858.74,2.63,0.0,1062.5,1062.5,0.9395758268362379,0.5101306596653014,0.4398140685909848,63.600068553659455,0.363760410825443,64.66065264130884,0.025,21,0.5430233583333333,0.0021713732858716925,2.815755321114184e-06,32.32233333333333,0.014761059883656436,2.024306104683784e-05,66.80000000000001,2.2599587016875637,6.750000000000007,0.004013959422189515
S065,7222.0,7251.984375,W,0.1356249999999985,120.86386200677482,-536.84,410.48,947.32,10.059999999999999,0.0,1062.5,1062.5,1.2699638418955959,0.6215870355053533,0.5605667007963161,63.697722921300624,0.30972241531154854,64.60650122085238,0.036458333333333336,32,0.5471327416666666,0.0019493538993550009,2.362665354455655e-06,32.348333333333336,0.017527755766845354,3.159723079352123e-06,69.88266666666667,0.35294884741119215,1.4899999999999949,-7.638890961069655e-07
S065,7252.0,7281.984375,W,-2.022505208333332,156.53096450604488,-606.45,644.89,1251.3400000000001,-1.865,0.0,1062.5,1062.5,0.7586587843303909,0.45595976308831854,0.43596456755872565,63.751132175860995,0.2708405974642723,64.60650122085238,0.03854166666666667,34,0.550313225,0.0019092610719966111,2.149629272360366e-06,32.359666666666676,0.015380362660076509,9.27083584820733e-06,71.42299999999999,1.0487362235884992,3.5999999999999943,0.0018423268886520422
S065,7282.0,7311.984375,W,-2.5783489583333337,141.84649967384453,-419.87,382.26,802.13,-3.3449999999999998,0.0,1062.5,1062.5,1.005194840151235,0.5527707983925666,0.528237989228235,63.70789336687562,0.36393372309380734,64.85368146836385,0.07083333333333333,46,0.5759078333333334,0.026849008607499007,4.398752191501789e-05,32.364333333333335,0.01745152015027617,4.826390198128408e-06,71.56166666666668,0.7400183931648069,2.2900000000000063,-0.001261632286684106
S065,7312.0,7341.984375,W,4.3306354166666665,164.63506546302008,-584.01,509.69,1093.7,10.35,0.0,1062.5,1062.5,0.8103008432657727,0.2660719279317781,0.48594726901577384,63.851930912666255,0.37316491987903605,64.66838485689897,0.06770833333333333,41,0.5989620916666667,0.011376215767260384,-1.7428938104638153e-05,32.355000000000004,0.016881943016131964,3.7152787856096027e-06,66.55633333333334,1.7283893915691824,5.589999999999989,-0.002950313300323703
S065,7342.0,7371.984375,W,0.9346718749999998,178.24168506552135,-649.45,532.06,1181.51,-1.105,0.0,1062.5,1062.5,13.953893533643715,10.772243168127236,12.57571129359809,63.96038437634688,4.00825466131588,105.34229919647663,0.028125,9,0.5956106583333333,0.006734694280979939,9.72347703002308e-07,32.362,0.015999999999998116,7.916668814199813e-06,63.58166666666667,1.374945049407027,4.019999999999996,-0.002279132562698723
S065,7372.0,7401.984375,W,-2.785479166666669,256.79277030723057,-1018.91,1423.2,2442.11,-3.3899999999999997,0.0,1062.5,1062.5,28.0700912887115,18.420789714520854,12.414241889568142,64.46890617085232,5.835660099809286,148.20593780277497,0.0375,16,0.5706457583333333,0.03416895057480203,5.711987443572985e-06,32.327999999999996,0.02072036035722568,-2.673611836374577e-05,63.198,0.839521292165958,2.8500000000000014,0.0004356945626341584
S065,7402.0,7431.984375,W,-0.295645833333334,181.93226177618845,-522.98,462.12,985.1,7.235,0.0,1062.5,1062.5,0.5806252242554285,0.421225065203337,0.4972144630058765,64.39489599286743,0.3361473899742278,65.05382386916237,0.18645833333333334,138,0.5691514166666667,0.0016868578411913986,1.5502738580387065e-06,32.28866666666667,0.016275407487644746,-2.375000644260077e-05,64.725,1.6165905480362062,5.499999999999993,0.0028014938155093904
S065,7432.0,7461.984375,W,2.922859375,207.2439719220366,-624.3,562.62,1186.92,2.73,0.0,1062.5,1062.5,0.7337290303174296,0.4395339624723744,0.5107088874381699,64.3609250519649,0.36865944812222495,65.16133823057964,0.11875,87,0.5713929416666667,0.0019322660630109586,1.515089169674793e-06,32.257999999999996,0.017587874611032447,-1.5694448701838528e-05,66.91599999999998,0.7028399533321941,2.210000000000008,-0.0006862501861572762
S065,7462.0,7491.984375,W,-3.330479166666667,186.9880904359274,-669.07,600.03,1269.1,-3.0700000000000003,0.0,1062.5,1062.5,0.5489533918183664,0.401785025352143,0.4943956748732065,64.3852874527437,0.35993234674234803,65.64297372910524,0.09166666666666666,73,0.5755021333333334,0.002386652268112991,3.1859635378590255e-06,32.22266666666667,0.01730767331432878,-9.583335932979205e-06,68.92166666666668,1.1452454855716414,3.5600000000000023,0.0018237852169556274
S065,7492.0,7521.984375,W,1.6684947916666675,85.3568854042334,-353.9,465.38,819.28,0.18,48.508390555112925,1062.5,1079.8990885416667,1.0765689253557649,0.751202739315796,0.9088683439677425,64.25094915614386,0.44006537539062174,66.06057825965497,0.1375,98,0.6203297583333334,0.01299368627128565,9.885546735445623e-06,32.198,0.017776388834631,-1.7291671357332738e-05,68.61500000000001,0.8822688554705599,3.230000000000004,-0.0011104516901181867
S065,7522.0,7551.984375,W,0.35073437500000026,51.135874556912356,-125.54,128.21,253.75,1.9949999999999999,74.75758689048759,1171.875,1140.0390625,0.9974528106005819,0.4746972262371271,0.7743164548311126,64.11924935184219,0.3832265078052692,65.39877674696982,0.15104166666666666,117,0.6269045333333333,0.0068154417941090895,6.723138542518046e-06,32.202999999999996,0.015088627063675546,7.95139104584185e-06,61.437999999999995,2.689745217178261,8.550000000000004,-0.004823612419599721
S065,7552.0,7581.984375,W,0.3726770833333334,45.8200000513774,-104.26,93.62,197.88,4.73,58.70171440721511,1093.75,1113.5091145833333,0.698059686838374,0.32425127430572864,0.3897782489228116,64.22780448866477,0.3730020989919482,65.26101439603893,0.33125,180,0.640032675,0.004650917424126304,4.589468041847878e-06,32.22633333333333,0.015595583420385513,1.559028200691126e-05,54.17966666666666,1.5708182227389933,4.5,-0.002627535434986826
S065,7582.0,7611.984375,W,-0.356375,52.77614679380299,-122.23,98.32,220.55,1.935,29.812704940862776,1093.75,1097.9573567708333,0.6511799853065886,0.22313073833268446,0.509476174342061,64.27442514321952,0.3555242729680147,65.26101439603893,0.36875,180,0.6468955916666667,0.0045286878719555486,4.628043573145502e-06,32.248666666666665,0.014544949486183225,1.3055559097104659e-05,53.401666666666664,0.2962890855604074,0.8599999999999994,0.0005281598654947558
S065,7612.0,7641.984375,W,-0.021817708333333328,53.473925552924264,-109.39,105.41,214.8,5.324999999999999,32.838002139203866,1109.375,1110.4817708333333,0.5474837881288257,0.25789403172082564,0.44868514503491197,64.23363023808108,0.3324727118753556,65.83312236253116,0.296875,168,0.6521147833333333,0.004776951997496836,6.165430925952424e-06,32.28066666666667,0.013399834161493434,1.1388891978323097e-05,53.86299999999999,0.02734349404642121,0.10000000000000142,3.1701397488442646e-05
S065,7642.0,7671.984375,W,0.04323958333333326,51.593772013168085,-104.17,102.08,206.25,4.390000000000001,31.466534958041137,1125.0,1126.5625,0.5364775481995702,0.19609634377434645,0.4662153695807692,64.301847270709,0.3268219307393585,65.26101439603893,0.3770833333333333,200,0.6587962666666667,0.0020580828527755873,-2.2063330637839843e-07,32.296666666666674,0.012995725793079192,1.0277780565804884e-05,53.72666666666667,0.15221330063069075,0.5,-0.00026291673798739713
S065,7672.0,7701.984375,W,-0.49855208333333345,47.44208364754024,-110.9,100.1,211.0,2.42,34.191542734120944,1125.0,1128.3284505208333,0.48204637390734745,0.15136818156035597,0.5042258487991489,64.32828567471077,0.3397236418021183,65.83312236253116,0.42916666666666664,216,0.6649974,0.003432349793751592,3.615858619753304e-06,32.31733333333333,0.013888444437332515,1.3611114803362531e-05,53.02366666666667,0.17516627021839093,0.5700000000000003,-0.0003066320276237061
S065,7702.0,7731.984375,W,1.1490364583333337,51.556042727577896,-168.26,141.89,310.15,3.0300000000000002,34.42754486436372,1125.0,1122.509765625,2.335153447477037,0.4754372530599829,1.7605186730801492,64.23889579491812,0.4141964706731684,66.1362230551458,0.159375,94,0.5307077333333334,0.04127943446756776,-3.382706690187362e-05,32.318666666666665,0.01586050300449338,-9.166669153285633e-06,52.705000000000005,0.11074746046749774,0.3500000000000014,-0.00015434031964526882
S065,7732.0,7761.984375,W,-0.7900416666666668,48.005075919747945,-116.11,100.51,216.62,3.255,33.029554881960074,1156.25,1154.7200520833333,0.6641480745515683,0.3790736493047521,0.5061042314143951,64.17575306268074,0.37612343429082956,65.22269543648132,0.24166666666666667,164,0.5165750416666667,0.003194181145447222,2.945844983139325e-07,32.31366666666667,0.015162087220725158,1.3993059351415497e-05,52.59733333333332,0.15874367878928541,0.6000000000000014,-0.0001937500525580666
S065,7762.0,7791.984375,W,-0.05373437499999998,42.40074610391929,-88.43,88.33,176.76,2.8150000000000004,30.71212295896292,1125.0,1132.9264322916667,0.7184782094816794,0.3197747009614738,0.5201151298163599,64.15923668131393,0.34558906880229884,65.31462317123173,0.215625,147,0.520118575,0.008796525111904988,6.218988015133468e-06,32.325666666666656,0.011160446028521585,5.034723587978191e-06,52.080999999999996,0.05172684667236801,0.1700000000000017,2.2812506188287542e-05
S065,7792.0,7821.984375,W,0.2723177083333332,44.34454071990687,-107.0,100.88,207.88,3.7350000000000003,49.12342279203316,1156.25,1160.2132161458333,0.6882445463318657,0.42654437537806855,0.4300960809968964,64.14009907626001,0.3319495256050067,65.22269543648132,0.2708333333333333,162,0.5383377583333334,0.0032393634791314345,3.555893976750744e-06,32.335,0.006708203932501036,-4.479167881719776e-06,51.90733333333333,0.0754954008900915,0.25,-9.673613735246927e-05
S065,7822.0,7851.984375,W,-0.370453125,40.807272820602634,-117.62,91.33,208.95,4.22,59.13230361525753,1125.0,1114.2171223958333,8.613299670079826,0.9446463734294084,2.8563335752421417,63.92952750008691,0.4328840671943595,66.34003316248794,0.140625,86,0.523277825,0.008042198683260794,-1.180111496341009e-05,32.33533333333334,0.00921351664072424,4.236112260231359e-06,51.808,0.10476640682967013,0.35999999999999943,4.305556723512649e-05
S065,7852.0,7881.984375,W,-0.3790104166666665,45.24834264068749,-106.78,99.86,206.64,2.21,51.07560878180683,1171.875,1170.7356770833333,0.9122787973896284,0.24782911619366543,0.33166084322777023,64.02131434951622,0.25301639030230705,65.16133823057964,0.10104166666666667,76,0.5219223333333333,0.0028943119255225897,4.120595735838704e-06,32.33166666666666,0.012671051872499187,9.965280481032885e-06,51.73766666666667,0.12481141329577546,0.4200000000000017,-0.0002132292245087954
S065,7882.0,7911.984375,W,0.6717187499999999,40.505198598503775,-106.97,98.92,205.89,3.975,45.25217813151985,1156.25,1164.7542317708333,0.7036849622108367,0.139283726964862,0.20740417800891947,64.03202400721527,0.2089295082208727,64.93843238021688,0.065625,49,0.5370676583333334,0.003697997623705364,-4.156562976498195e-06,32.33,0.013662601021279521,1.1041669661911232e-05,51.49166666666666,0.23503309459639019,0.7199999999999989,-0.00035809037491600973
S065,7912.0,7941.984375,W,0.13477083333333356,43.1144337870836,-90.47,83.84,174.31,3.8449999999999998,33.15994946111784,1171.875,1170.8333333333333,0.6952186656409303,0.21039603859282985,0.2091624128053498,63.97887292210647,0.19543443133470176,65.16133823057964,0.03854166666666667,31,0.5306423916666667,0.0017991070530304428,-3.98090168752751e-07,32.347333333333346,0.015902480589167257,1.1875003221299682e-05,50.955000000000005,0.04039389392800143,0.14000000000000057,5.968751619127416e-05
S065,7942.0,7971.984375,W,0.15587499999999982,43.401119353184605,-96.88,87.61,184.49,1.91,37.94943232183632,1140.625,1143.5465494791667,1.9687530313027812,0.47568367283019314,0.6542918869005552,63.93195876752252,0.30183850174111343,64.97691897897283,0.07604166666666666,63,0.5330972666666667,0.0017497572104596478,6.521299512071183e-07,32.357666666666674,0.015849991237288984,8.229168898970182e-06,50.882333333333335,0.05444773232702708,0.21999999999999886,5.559029285761004e-05
S065,7972.0,8001.984375,W,-0.4821145833333335,44.65802483302269,-117.15,96.33,213.48000000000002,2.67,78.83883409079843,1140.625,1136.3932291666667,1.136812979341809,0.6208813949517429,0.5024246764994286,63.8715469211953,0.37007057013565275,66.2872536767062,0.052083333333333336,37,0.5350717833333333,0.0023017717928563,2.2560895876979144e-06,32.35666666666667,0.01776388345929704,2.5694451414514246e-06,52.38333333333333,0.6678140126978134,1.9799999999999969,0.0011448614216746475
S065,8002.0,8031.984375,W,0.07997395833333278,44.93477164004588,-105.87,90.75,196.62,3.27,58.44088981438822,1171.875,1174.5361328125,1.3433219602496227,0.5248635735439575,0.536513953427329,63.78988559907756,0.36866234316126173,64.97691897897283,0.103125,71,0.5385725916666666,0.0017916886610859274,8.330746617498554e-07,32.35366666666667,0.018882678717690036,-7.256946413016369e-06,52.64266666666666,0.21603909111290204,0.6599999999999966,-0.00033736120262619344
S065,8032.0,8061.984375,W,0.26432812499999986,41.514952925705984,-102.05,90.04,192.09,3.9450000000000003,40.63939222706534,1156.25,1159.3912760416667,4.171763029084146,0.5752377225982316,0.4885127923236902,63.769683361139535,0.37274971943339497,64.91532946846992,0.084375,66,0.5406858833333333,0.0030546093617769728,-1.1776639479340105e-06,32.36466666666667,0.01627540748764317,-8.333335593889194e-07,51.18833333333334,0.6587467056632786,1.8200000000000003,-0.0011171878030565873
S065,8062.0,8091.984375,W,-0.47228645833333355,39.4405729234823,-88.95,79.19,168.14,2.92,60.91523809884428,1156.25,1157.6822916666667,1.0409950960165737,0.505695641267771,0.409933884828463,63.52305802202617,0.3494870483490527,64.70703207534712,0.11770833333333333,89,0.5406858500000001,0.004312718847876973,5.886149166164581e-06,32.364333333333335,0.018199511592956238,1.0312502797443861e-05,51.244,0.2925930051567647,0.9499999999999957,0.0004416667864764501
S065,8092.0,8121.984375,W,-0.032520833333333186,38.95646245730053,-82.17,70.13,152.3,3.505,46.17720912896423,1156.25,1159.1389973958333,1.170747605847316,0.504922599610299,0.3872759208741087,63.497510977415764,0.34978518116811125,64.64518543557594,0.10729166666666666,78,0.5448912083333333,0.00353272732435776,3.1422810173288424e-06,32.36233333333334,0.014761059883654377,-4.687501271566055e-06,51.325,0.05207366576943434,0.15000000000000568,5.288195878959398e-05
S065,8122.0,8151.984375,W,-0.08880729166666666,41.457592388492166,-94.65,139.26,233.91,1.525,32.91160411775263,1156.25,1154.0934244791667,0.9499634495892753,0.42425895361467886,0.47167030144359195,63.48633733701342,0.37992963945605357,64.76109943476871,0.21666666666666667,138,0.5469511666666667,0.0024206611332902913,-8.949681247200942e-07,32.348,0.015999999999998415,-1.2291670000994289e-05,51.087999999999994,0.13538586829257115,0.4200000000000017,-0.0001808333823875285
S065,8152.0,8181.984375,W,0.39132812499999997,36.44391981691186,-77.43,69.79,147.22000000000003,3.3099999999999996,60.92113862102598,1140.625,1163.5009765625,1.1117975310280197,0.3786798614925277,0.5009322905565404,63.434012140307296,0.3860316697031065,64.5832795698701,0.23541666666666666,150,0.5482212416666666,0.0017155422514753857,2.9654283217850127e-07,32.333,0.010049875621121248,-6.562501780192418e-06,51.13466666666667,0.07535397947170491,0.22999999999999687,-9.90972491040714e-05
S065,8182.0,8211.984375,W,-1.3014010416666661,89.34553224563517,-819.53,496.49,1316.02,3.495,15.108515672377703,1156.25,1154.6223958333333,18.69828411895208,5.011072700467936,16.292803369072615,64.09009916493949,3.9126958772976153,90.09439494219383,0.07083333333333333,35,0.5499289333333334,0.10098847672694589,-5.486413380645989e-05,32.32666666666666,0.009775252199076134,-6.458335085268451e-06,51.75533333333333,0.939960046432235,3.6199999999999974,0.0011897919894184
S065,8212.0,8241.984375,N1,3.6100729166666663,111.03065096608691,-622.92,407.6,1030.52,5.355,0.0,1156.25,1156.25,36.198207193078716,17.84108667976619,20.968329189352584,64.95576274773121,10.149195905445914,166.6043216726385,0.09270833333333334,42,0.21405840833333334,0.09567933558563346,-2.326449632825958e-06,32.29666666666667,0.01738453974720678,-2.2222228250387407e-05,63.77400000000001,5.169719270263457,16.580000000000005,0.009304655301827065
S065,8242.0,8271.984375,W,-1.9415989583333328,144.52099110832626,-810.33,857.06,1667.3899999999999,-0.195,53.24191274904016,1156.25,1160.6608072916667,16.677912742231868,5.568407346204468,9.077808848960407,65.1121325432068,6.681581325495064,139.88924190229926,0.04895833333333333,17,0.39855017499999995,0.0946978140235791,0.00010523416070805142,32.237,0.019857828011475783,-8.020835509125604e-06,80.21700000000001,4.388184248638609,13.669999999999987,0.007659134022117518
S065,8272.0,8301.984375,W,-0.6610052083333332,40.9883483555588,-186.3,116.04,302.34000000000003,2.5700000000000003,151.8058291765597,1187.5,1135.400390625,1.972515138654764,1.2341336789424395,1.2065139859379537,64.30829471231952,0.6491195525155518,71.8679344353238,0.042708333333333334,26,0.46632541666666666,0.0036862324139590344,3.922220247998116e-06,32.224000000000004,0.011718930554163348,1.041666949236704e-06,74.65100000000001,5.284046019229329,17.019999999999996,-0.009515801192437386
S065,8302.0,8331.984375,N1,-0.005677083333333499,68.48053482301174,-331.18,484.14,815.3199999999999,-1.415,98.491604046439,1234.375,1204.3294270833333,33.474393182176286,17.56733248930897,13.996945932692187,64.87757330059411,9.395891351686936,130.47988350699887,0.084375,45,0.3828840333333333,0.1390631014405531,-0.00016297191096243242,32.245333333333335,0.01231079020841417,5.347223672749893e-06,57.45933333333333,4.616024937348391,14.170000000000002,-0.00812854387167531
S065,8332.0,8361.984375,W,0.8187864583333332,59.44555948369399,-319.48,242.26,561.74,0.745,43.47030303640401,1281.25,1259.1959635416667,20.91707334328261,10.54714922483006,16.824848283068228,65.20709721657437,7.399119717116339,117.8516016013359,0.07708333333333334,34,0.21921807499999998,0.08236754675823103,8.222267877134299e-05,32.209999999999994,0.030659419433512407,-4.6805568252378925e-05,58.316,2.561715050508155,7.399999999999999,0.0044131956416003796
S065,8362.0,8391.984375,W,-0.8718125000000003,77.12146177693131,-409.54,548.37,957.9100000000001,-0.05,59.4720215077136,1171.875,1173.779296875,10.003879401592027,9.50060253708723,6.865403577069718,64.55542482372232,3.7196327097448276,99.80480950335009,0.0625,23,0.2781878333333333,0.0732583393219199,2.3247101792291067e-05,32.19033333333333,0.031249888888691273,4.177084466440036e-05,62.04600000000001,1.3786843970491096,3.5700000000000003,0.00213263946740437
S065,8392.0,8421.984375,W,0.4889114583333335,35.13992296745721,-79.71,78.59,158.3,1.34,58.21021973382391,1171.875,1177.3681640625,0.03225804701500421,0.06441510347391793,0.31340840191176894,64.24303721135493,0.31272169810672706,65.13063795173512,0.11041666666666666,96,0.3433587166666667,0.007984244965538201,1.4061109717097893e-05,32.234,0.010832051206181924,4.305556723512647e-06,57.32533333333333,2.5061041922119323,7.239999999999995,-0.004284167828821568
S065,8422.0,8451.984375,W,-0.3572083333333334,36.46272652938336,-80.26,75.2,155.46,0.485,59.56600764272401,1171.875,1165.1041666666667,0.4699106002445808,0.0,0.35604739609199343,64.26340875368484,0.3546176675757346,65.13063795173512,0.14895833333333333,124,0.36365927499999995,0.004596378656004637,7.941004541288121e-06,32.244,0.018000000000000866,2.4097228759015125e-05,53.748333333333335,1.7226221936983812,4.359999999999999,-0.0028696188339894842
S065,8452.0,8481.984375,W,0.5836927083333331,49.95728273109259,-112.86,98.14,211.0,3.435,42.05292559972338,1140.625,1149.5849609375,0.4685589888601719,0.04564354645876384,0.4126880358461529,64.29798621095263,0.4110586529265289,65.13063795173512,0.21770833333333334,148,0.38732194166666667,0.014934211797801624,2.5247057846966648e-05,32.275999999999996,0.017243356208503063,2.1041672374585317e-05,51.36833333333333,0.23877581303157316,0.6799999999999997,0.00042718761588205704
S065,8482.0,8511.984375,W,-0.37215624999999974,59.73438276494468,-132.23,118.76,250.99,2.7,39.42200762833548,1125.0,1131.1360677083333,0.2917856900001933,0.0,0.43714147015646504,64.29481293440878,0.4365448385305798,65.07687761409578,0.25729166666666664,190,0.414688225,0.00234689774476329,3.7997204317818105e-06,32.30366666666667,0.017978382080215686,1.6145837713171403e-05,51.992666666666665,0.25661817723787334,0.6999999999999957,0.0004527084561383603
S065,8512.0,8541.984375,W,0.46419791666666665,64.06079134536321,-132.92,121.07,253.98999999999998,3.725,45.90078938548072,1125.0,1123.9420572916667,0.5297148980950874,0.045595976308831845,0.43361244016274364,64.28103328195071,0.4339856427083121,65.07687761409578,0.25104166666666666,176,0.4236535583333333,0.003650690002807307,5.787221838981619e-06,32.33266666666667,0.014817407180594898,1.972222757221838e-05,52.53233333333333,0.11494008100842032,0.37999999999999545,0.00019413199710611897
S065,8542.0,8571.984375,W,-0.4735937500000001,67.66920449496058,-140.81,135.11,275.92,2.375,37.22441037390477,1140.625,1140.9342447916667,0.03225804701500421,0.032258047015004204,0.4330127018922193,64.26554674556311,0.432918191475874,65.01538279515087,0.25,187,0.431466525,0.001730645645236197,2.4554770115768834e-06,32.364333333333335,0.018199511592956238,6.145835000496356e-06,52.82533333333333,0.08011380793734763,0.25,-0.00013145836899369775
S065,8572.0,8601.984375,W,0.1813125000000003,68.00995572606027,-141.01,138.77,279.78,2.67,45.292477184905515,1140.625,1155.7373046875,0.055891993438734626,0.03225804701500421,0.42934361238988994,64.25934717983559,0.4292047157536851,65.01538279515087,0.24375,182,0.436376325,0.0017916831991291499,2.0990077308506223e-06,32.38799999999999,0.013012814197295457,7.013890791528324e-06,52.48633333333333,0.1733682657107566,0.5,-0.0003055903606744683
S065,8602.0,8631.984375,W,-0.02509375000000009,63.55502201907712,-152.64,137.52,290.15999999999997,2.99,76.10360849563749,1156.25,1157.2428385416667,0.2413791392993373,0.1718434314443108,0.43829169439426985,64.27509021476006,0.43811476935267823,65.13063795173512,0.259375,194,0.4390658833333333,0.0014998430594750692,1.7149974270283747e-06,32.40733333333332,0.01526069752301245,1.5972226554965135e-05,52.117,0.06634003316248727,0.19999999999999574,5.2465292009897775e-05
S065,8632.0,8661.984375,W,-0.34938541666666595,70.8345407198867,-157.66,134.37,292.03,3.4400000000000004,51.90137932912084,1171.875,1168.8395182291667,13.309672976758817,14.977232576805443,24.25511749768261,64.45219788782711,3.3613334301102045,103.78824596263297,0.04375,14,0.44147810833333334,0.03852527783499119,2.9738695133109596e-06,32.423333333333325,0.012995725793080042,2.5000006781690516e-06,51.687666666666665,0.16554321355934717,0.6999999999999957,-0.0001396180934293885
S065,8662.0,8691.984375,W,0.53015625,122.13259568359746,-486.34,760.57,1246.91,2.5599999999999996,0.0,1218.75,1218.75,38.803967571700134,22.284181351314295,21.006006679596766,66.97763842608352,14.36293380655521,139.59226339593465,0.12604166666666666,64,0.291204275,0.1250098491533742,-6.136905071860099e-05,32.41533333333332,0.021868292622476637,-3.083334169741349e-05,65.448,7.537126950414637,25.169999999999995,0.013590350908840849
S065,8692.0,8721.984375,W,-0.48143749999999996,38.090736592819965,-397.65,240.01,637.66,-0.56,156.34349124085665,1218.75,1104.4189453125,7.6730699595511735,2.904629924792485,2.0261739459816868,63.87958095224182,1.627937048122821,95.34149149242423,0.020833333333333332,10,0.453837675,0.01448241774829195,5.490253442451561e-06,32.25933333333333,0.0779287423797469,-0.00013708337051957845,92.76700000000001,8.404022509092496,27.849999999999994,0.015151566610125488
S065,8722.0,8751.984375,W,0.8712812500000002,190.17011756342677,-1142.08,882.27,2024.35,-0.24,59.3154603125361,890.625,923.8850911458334,15.93725323202205,18.574476589006636,10.265095379962244,64.81809050311944,6.014698817293561,107.93053321465618,0.084375,36,0.454456725,0.03699571572717633,4.05037599022786e-05,32.13733333333334,0.039659663247295085,-4.506945667031661e-05,112.81933333333333,3.8237441801924397,13.25,0.006816251849026651
S065,8752.0,8781.984375,W,-0.8259947916666668,59.80372630487075,-272.12,422.02,694.14,-2.77,37.01459503852117,781.25,788.6637369791666,4.470613927514753,2.1854491874764936,1.0318995218837388,64.00968110364063,0.7947064511910504,72.44998274671983,0.04791666666666667,23,0.46332618333333325,0.007563269174088822,-3.1782091954777502e-06,32.10933333333334,0.026068286394689468,1.8125004916721385e-05,112.21933333333332,6.843165414403549,22.010000000000005,-0.012283683887718068
S065,8782.0,8811.984375,W,0.061713541666666615,15.684589581657052,-31.92,49.81,81.73,0.875,81.34771323892144,1000.0,1002.2623697916666,0.49997287252798917,0.43240962246141357,0.07880950133074056,63.94367958161688,0.142915698381453,64.10148204214939,0.13125,72,0.472676,0.00447315515603919,7.661403119955274e-06,32.12266666666667,0.015040685563571335,8.819446836871647e-06,82.62833333333333,10.329386584992461,34.83000000000001,-0.018593998099500356
S065,8812.0,8841.984375,W,0.13955729166666664,15.445071812510056,-30.65,33.94,64.59,1.32,73.94484947755079,1000.0,976.1800130208334,0.40686251900980014,0.48491904930101476,0.07198059875565237,63.88057053592039,0.11546863339165078,64.10148204214939,0.20625,83,0.48611360000000003,0.004116862625025685,6.923530957989091e-06,32.15333333333333,0.021343747458108946,2.798611870283033e-05,60.397666666666666,0.5797452505674846,2.8999999999999986,-0.0002654514608972056
S065,8842.0,8871.984375,W,-0.4115416666666667,41.744118817534414,-249.79,145.43,395.22,1.0150000000000001,69.94182650104199,1015.625,996.5087890625,0.15612494995995996,0.4903185968213819,0.03225804701500421,63.848521402277264,0.05266000638973913,64.10148204214939,0.025,20,0.5029986666666667,0.005433713017408586,6.011020727815953e-06,32.19266666666667,0.023935097428021905,2.9791674748176417e-05,60.76533333333334,0.4070686537783145,1.5,0.0006221529465475667
S065,8872.0,8901.984375,W,0.4084635416666662,76.0029920407724,-476.82,431.79,908.61,0.885,67.87487528730767,984.375,991.5608723958334,2.974868694581325,0.9614301187626113,0.665395108970352,63.90352695915392,0.5965809646259798,68.79680225126747,0.171875,99,0.4908525666666667,0.01664700036329535,9.231026809631845e-06,32.203666666666656,0.04127011294172005,-5.6701404270130465e-05,62.77733333333333,0.18667142851069263,0.8500000000000014,0.0002597222926764047
S065,8902.0,8931.984375,W,-0.015619791666666612,25.649378834893025,-46.78,120.55,167.32999999999998,-2.865,76.87282815913298,1000.0,1002.0589192708334,0.5051127486897247,0.16567085319156843,0.3903123748998999,63.858598342080604,0.369742412343063,64.79197481170026,0.1875,134,0.5103738833333333,0.002619558150348173,3.509937150048052e-06,32.18733333333333,0.018245242911205654,1.6250004408096797e-05,62.41166666666666,0.42530838484824407,1.6499999999999986,-0.000665312680477615
S065,8932.0,8961.984375,W,0.08380729166666659,21.225980192677717,-60.76,153.08,213.84,0.555,35.4885045932555,984.375,990.7877604166666,0.10663227798529551,0.1795054935711501,0.13188915142607022,63.812433292717536,0.13079473411889603,64.7688196588451,0.01875,18,0.5160628083333333,0.001964654932788608,2.252948310804144e-06,32.228,0.022568414506414662,3.2986120059168335e-05,60.35366666666667,0.22628129004012257,0.9299999999999997,-9.878474901929915e-05
S065,8962.0,8991.984375,N1,-0.19832812499999988,19.411906576748645,-44.94,105.02,149.95999999999998,-0.44000000000000006,103.67563576398223,984.375,955.0211588541666,0.10206207261596575,0.2795007329547138,0.06441510347391795,63.802687833202725,0.06727004447473114,64.7688196588451,0.009375,8,0.5219117416666668,0.002413228834624657,3.5737234086706286e-06,32.27066666666666,0.015902480589168357,2.1041672374584897e-05,61.88366666666666,0.4087499915052666,1.3999999999999986,0.0006616321239236445
S065,8992.0,9021.984375,N1,-1.66546875,55.51400577208968,-197.75,246.0,443.75,-2.045,18.760734593537357,953.125,963.6067708333334,0.4618132570368676,0.3736070773739289,0.06441510347391795,63.863985157947134,0.1280614911147133,64.29618962271404,0.278125,68,0.530429,0.0035435953234909078,5.738237233679794e-06,32.318,0.0173973178009325,2.0208338815194644e-05,62.309000000000005,0.05912416313713589,0.22999999999999687,-3.6631954381498495e-05
S065,9022.0,9051.984375,N1,1.7947968749999996,38.95771127881796,-133.47,329.32,462.78999999999996,0.38,62.63547361028627,984.375,986.9384765625,0.29860606423383673,0.18219044808935514,0.14994211846205485,63.99570422721327,0.1576085753881788,64.7688196588451,0.0010416666666666667,1,0.5407819666666666,0.0036243977544168945,6.0612637970008154e-06,32.378,0.02773685875028467,3.9930566387412386e-05,61.454000000000015,0.2618472837361499,0.8999999999999986,-0.000293333412905114
S065,9052.0,9081.984375,N1,0.2774843750000002,51.64916515212239,-169.47,213.91,383.38,-2.33,70.13149558235297,859.375,905.126953125,0.5428022951289191,0.09090593428863096,0.14786897705401225,63.935317597881294,0.183021833073935,65.00769185258002,0.0125,12,0.5512846000000001,0.0026387008211112744,4.056747194213097e-06,32.441333333333326,0.021715329966538053,3.0625008307567185e-05,62.593333333333334,0.40307429698368125,1.5200000000000031,0.0004544445677204238
S065,9082.0,9111.984375,N1,-1.3769687500000003,66.17708058276186,-198.15,368.89,567.04,-4.585,14.669680415807495,984.375,978.1412760416666,0.8588786445369722,0.08538490263051321,0.49869512890865725,63.78332547423229,0.42438164602402273,65.00769185258002,0.19166666666666668,117,0.55924675,0.003105737519092695,4.866111563072813e-06,32.49066666666667,0.015260697523012894,1.4652781752598643e-05,63.19233333333333,0.48813716196258733,1.4600000000000009,0.0008435766177236921
S065,9112.0,9141.984375,N1,0.8638958333333332,56.32239903402094,-194.38,298.67,493.05,0.135,8.747959807373519,968.75,961.083984375,0.5162454179915035,0.29292696461272083,0.4600535898735663,63.81912031961708,0.4096319041590713,64.319514923544,0.12916666666666668,86,0.5680415083333333,0.003408749643676378,5.5108923369390955e-06,32.55233333333333,0.02616401260425462,3.885417720653811e-05,65.76,0.9756023780208815,2.809999999999995,0.0015712504262289553
S065,9142.0,9171.984375,N2,0.17182291666666635,50.07779280581339,-127.68,182.85,310.53,-1.105,90.96082493842073,781.25,843.1722005208334,0.7011863706525454,0.31819634650724005,0.34378787670112315,63.59746278929865,0.29794031355404255,65.26101439603893,0.146875,72,0.5778502666666666,0.0033248099888899233,5.232551766642731e-06,32.59200000000001,0.01661324772583638,1.8819449549547606e-05,65.92466666666667,0.45042005086610215,1.2900000000000063,-0.0001894444958345513
S065,9172.0,9201.984375,N2,0.24908854166666652,55.472201889329156,-199.29,251.85,451.14,1.49,0.0,781.25,781.25,1.1328042384756218,0.47488919577506594,0.5068444298220773,63.57112082755562,0.3522145108558934,65.46754921333164,0.14166666666666666,94,0.5854389499999999,0.002939333430246858,4.54368265616394e-06,32.64633333333333,0.019058389811895723,2.6006951499279013e-05,66.30866666666667,0.36904140086927184,1.1099999999999994,-0.0005470140372759408
S065,9202.0,9231.984375,N2,0.02355729166666644,96.14635098868507,-314.24,575.35,889.59,-1.65,0.0,781.25,781.25,3.2719011990885702,1.175590867984644,1.420533555252118,63.68632157892228,0.40868946577066073,65.25335240430181,0.15416666666666667,77,0.5951410083333334,0.0038149206402751257,5.142544580768372e-06,32.684666666666665,0.025394662606321526,2.5277784634816577e-05,67.22433333333333,0.6643778208887529,2.0799999999999983,0.0001986458872194767
S065,9232.0,9261.984375,W,-0.8214322916666664,88.7876964460061,-211.39,379.68,591.0699999999999,-4.09,0.0,781.25,781.25,1.3208251182709827,0.7234830574208355,0.7841501725151603,63.547472845262675,0.36932819271659434,66.332495807108,0.159375,95,0.5989085083333333,0.0020999520232449485,1.34260387982962e-06,32.757333333333335,0.019652537297312495,2.0902783448021014e-05,64.60633333333334,0.45053659365496834,1.7600000000000051,-0.0005448959811458302
S065,9262.0,9291.984375,W,0.8190937499999997,84.82360967590064,-364.24,359.77,724.01,8.215,129.50592786419145,1031.25,994.0511067708334,0.8776441941910298,0.7809332691295291,0.506879752341059,63.53184800166507,0.287079245726206,64.87680633323437,0.08645833333333333,49,0.5972862583333334,0.006094360918772684,-7.94340731971769e-06,32.806333333333335,0.020080393975771466,2.8506952177449915e-05,61.419000000000004,1.4488164134906818,4.530000000000001,-0.0025237159623795477
S065,9292.0,9321.984375,W,-1.027947916666667,118.23921022328614,-627.49,541.65,1169.1399999999999,-7.455,0.0,1093.75,1093.75,24.882498520825614,12.811371223990385,2.4612515782823223,64.28371415977035,2.7361260006816424,102.32301793829187,0.022916666666666665,9,0.45775474166666663,0.15364532348841037,-0.0002372649148396579,32.910666666666664,0.05726740395334497,7.715279870681413e-05,57.81666666666667,1.1224120851491612,3.6499999999999986,-0.0011615280928624376
S065,9322.0,9351.984375,W,1.8357916666666654,142.96364631800606,-598.46,486.34,1084.8,7.135,59.74934452465252,1078.125,1074.8860677083333,17.805780866007083,7.315118165555609,8.015869405522329,65.40869474941918,6.337433853222536,107.8424777163433,0.06979166666666667,28,0.18001518333333333,0.14842969275069726,-0.0001853956336251176,33.04766666666667,0.021398338460938703,1.7951393758516178e-05,64.23366666666666,6.027569705574175,18.009999999999998,0.010371773646856998
S065,9352.0,9381.984375,N1,-2.864145833333334,144.2433085225836,-830.92,436.14,1267.06,-1.1800000000000002,41.32812294882898,1109.375,1121.5494791666667,4.73018883501817,3.984571890560097,4.553744333688182,64.92119205332034,1.734535685007269,84.5103543951864,0.015625,5,0.14525236666666666,0.1388208200404952,0.00021379023073736725,33.04533333333334,0.023485219938410438,-1.743056028389709e-05,77.16733333333335,1.3410640882854514,4.219999999999999,-0.0017913199303710747
S065,9382.0,9411.984375,W,2.058312499999999,105.31171213387906,-761.66,689.77,1451.4299999999998,2.395,13.500826947665326,1093.75,1095.7845052083333,1.3286881975801879,0.8914719413544222,0.6386011391553851,64.9504212186252,0.5515812329078695,70.178344238091,0.05,33,0.45596165,0.013937440747646846,2.442000792643443e-05,32.89766666666666,0.0399736024006962,-4.565973460821924e-05,67.325,6.20422100938815,19.150000000000006,-0.010761495974798169
S065,9412.0,9441.984375,W,0.7923541666666666,70.46389563309165,-234.09,170.35,404.44,3.0149999999999997,86.74368246944569,1125.0,1109.2203776041667,0.5483521716622144,0.16598493384608404,0.516330535821989,65.07005253818315,0.39493165411037473,66.58828725834597,0.026041666666666668,12,0.485281025,0.005621378669067018,9.693491127791649e-06,32.818000000000005,0.020558858593478904,-2.8263896555962016e-05,53.399,0.3783944150398282,1.1400000000000006,0.0005514237606943799
S065,9442.0,9471.984375,W,-1.4382812500000002,72.40670198149867,-230.23,217.88,448.11,-4.725,56.81462130324114,1093.75,1098.1282552083333,0.6996899114766643,0.32177216534201486,0.439992897669951,64.86434163983587,0.34535049440784304,65.7419196555744,0.26979166666666665,149,0.5025930916666667,0.005219629268437606,8.9713598555121e-06,32.778666666666666,0.012310790208411682,-7.84722435091754e-06,54.37166666666667,0.21924238235848068,0.8700000000000045,0.00036704871067944625
S065,9472.0,9501.984375,W,0.5564739583333336,64.37654298324259,-183.28,141.87,325.15,-2.83,34.952926428271596,1078.125,1077.3193359375,0.5147973154957849,0.43119338396478213,0.38349181506548774,64.77021359770501,0.3395052886212724,65.7419196555744,0.17083333333333334,119,0.5172047916666667,0.0038173107743886894,5.982530051684602e-06,32.778666666666666,0.014313940369055063,-1.368055926664372e-05,54.55766666666667,0.19424526306250664,0.5700000000000003,-0.0001315625356886234
S065,9502.0,9531.984375,W,-0.2068125000000001,76.9792501752789,-315.18,236.14,551.3199999999999,-6.12,71.60096750002354,1046.875,1028.1412760416667,0.6198669422074923,0.44858961076789206,0.32226244211391164,64.73895294710643,0.3182839073427879,65.7419196555744,0.309375,137,0.5279528416666667,0.0040801087240330365,6.923966939010117e-06,32.79066666666667,0.015902480589168783,-1.0416669492376414e-06,55.342999999999996,0.2627692270161527,0.8200000000000003,0.0004355209514759513
S065,9532.0,9561.984375,W,0.2852812500000001,74.95353684758689,-226.26,193.47,419.73,-3.305,105.05996887589275,1031.25,1017.2119140625,0.5682537517596244,0.4986690184185855,0.2870750936166354,64.80117387760114,0.34992487513193027,65.94694837519019,0.05416666666666667,42,0.5385726583333332,0.0032945780116625913,4.995354002645963e-06,32.797333333333334,0.014126413400278346,1.576389316511898e-05,55.976000000000006,0.12963024338479076,0.5700000000000003,0.00021131950176852895
S065,9562.0,9591.984375,W,-0.9996302083333332,75.00688638675898,-190.05,171.56,361.61,-1.545,46.40178663236883,1062.5,1071.2646484375,0.5104368618453761,0.3852251776558744,0.12801909579781012,64.90040742582946,0.27505931725125726,65.7419196555744,0.009375,8,0.5484454416666668,0.003511062934487293,5.0478396939669195e-06,32.81633333333334,0.014715826703096326,1.3090281328744651e-05,56.250666666666675,0.08644587259602937,0.29999999999999716,-0.0001112500301785024
S065,9592.0,9621.984375,W,1.973692708333334,75.28372025460965,-191.87,163.8,355.67,-1.55,61.074629163039134,1046.875,1050.048828125,0.5207072764119332,0.11557806855349138,0.07880950133074055,64.90589985873075,0.13384143011162644,65.7419196555744,0.16041666666666668,29,0.5562049416666668,0.0032684851519111905,4.749610012372512e-06,32.85266666666668,0.01768866554856022,9.444447006414016e-06,56.041666666666664,0.14917737391739125,0.4000000000000057,0.0002460070111781186
S065,9622.0,9651.984375,W,-1.1964114583333332,77.22324431604311,-230.78,171.25,402.03,-1.8900000000000001,99.88411672575526,1031.25,1004.3375651041666,0.45505932916000696,0.1288302069478359,0.06441510347391795,64.84968948630166,0.1252605162162996,65.55150646628954,0.013541666666666667,13,0.56090125,0.0020567334791281805,2.201003201226986e-07,32.88633333333333,0.017220788470785446,2.0173616583554557e-05,56.60633333333333,0.423158625366684,1.4599999999999937,0.0006611460126806655
S065,9652.0,9681.984375,W,0.4187135416666654,110.47240305775665,-555.56,385.43,940.99,4.68,47.27978875086667,1093.75,1077.587890625,0.9046555657864122,0.31671463452487036,0.24451447071469795,64.82266346459365,0.22914992771091564,65.95452979136459,0.13958333333333334,66,0.5684470916666666,0.0038018723742296364,5.111857506471756e-06,32.91466666666666,0.016069294390925595,9.9305582493926e-06,57.891333333333336,0.2762454625067268,0.9699999999999989,-0.00037784732471986867
S065,9682.0,9711.984375,W,1.4076406249999995,119.30341197798829,-409.59,367.98,777.5699999999999,10.05,39.60226760557293,1125.0,1131.0628255208333,0.6513574234286085,0.41339864235384227,0.07880950133074056,64.81456954485212,0.2555870018728724,65.46754921333164,0.225,59,0.57506455,0.0028375464808234187,4.097317517718516e-06,32.94,0.019832633040859332,2.3958339832450707e-05,56.17366666666667,0.6225296958557263,2.270000000000003,-0.0010985072424336065
S065,9712.0,9741.984375,W,-3.7446614583333333,126.7496673930957,-340.45,410.25,750.7,-8.655000000000001,78.05737047774126,1093.75,1058.8623046875,0.5127275494164084,0.4427647022936926,0.09107288747664329,64.93623161332616,0.3068504420593852,65.64297372910524,0.26458333333333334,74,0.5849266416666665,0.00273102165192149,4.215141117388571e-06,32.973333333333336,0.014452988925785778,1.9444449719088814e-05,54.63099999999999,0.22717614311366366,0.8200000000000003,0.00031059036203080493
S065,9742.0,9771.984375,W,1.9149583333333324,138.2213230572859,-416.07,420.49,836.56,2.4,0.0,921.875,921.875,0.614491518565463,0.43420885111762625,0.10691682092740236,64.9489730580712,0.28625228140046177,65.64297372910524,0.25104166666666666,73,0.5925154083333333,0.0027077655994559783,3.5387537811289496e-06,32.998333333333335,0.019336206683030974,2.246528387187617e-05,55.81066666666667,0.27443193853647635,0.8499999999999943,0.0004836806867623372
S065,9772.0,9801.984375,W,1.3557499999999996,152.95289940574844,-416.5,617.17,1033.67,-12.045,67.7051543443166,1078.125,1038.9811197916667,0.6188157582902469,0.48042294553572507,0.1899835519196333,64.98106897307306,0.31990902360914575,65.64297372910524,0.33229166666666665,100,0.6004882416666667,0.003645139690957977,5.487516028514543e-06,33.044333333333334,0.017829438827087873,2.5312506866455506e-05,55.815333333333335,0.2466540537315814,0.6899999999999977,-0.00037798621364643206
S065,9802.0,9831.984375,W,-0.7769687500000003,131.63560100543287,-433.87,348.06,781.9300000000001,-1.03,22.49215725211422,1078.125,1071.9645182291667,0.5410643686675982,0.4941838371806139,0.18483053424390922,64.98004046683278,0.32366278043820107,65.64297372910524,0.37604166666666666,82,0.6078848583333333,0.0024591507859958272,3.1670544615490603e-06,33.07866666666667,0.016069294390926855,1.645833779794503e-05,56.15366666666667,0.11309239094160499,0.35999999999999943,-0.00012440975597052803
S065,9832.0,9861.984375,W,0.23576041666666622,117.87625440276737,-631.4,322.82,954.22,6.865,19.39271069557547,1046.875,1034.6028645833333,0.6359449648074029,0.499995659703384,0.1356408400888169,64.99542946652407,0.308528975557719,65.46754921333164,0.40625,93,0.6132962083333333,0.0025881841346647922,3.333620044927307e-06,33.11600000000001,0.01872609587358352,2.756945192313604e-05,56.891666666666666,0.5679617553634712,1.5300000000000011,0.0009518405359810479
S065,9862.0,9891.984375,N1,0.13192708333333497,125.96793496112288,-412.95,459.31,872.26,-2.59,17.337644187683992,1062.5,1062.5651041666667,0.7358355747417731,0.4904646323187387,0.21358993356949718,65.02781279011508,0.3263133469715666,65.46754921333164,0.08541666666666667,65,0.6184406833333332,0.002280884214448905,2.83745563082021e-06,33.14999999999999,0.01653279569018171,1.3958337119773213e-05,56.70933333333334,0.10658121577255272,0.46999999999999886,-3.208334203649762e-05
S065,9892.0,9921.984375,W,-1.9449687500000001,127.69130741794129,-324.73,350.03,674.76,-2.895,5.775954195122164,1062.5,1061.3932291666667,0.590395311011096,0.42029668753816696,0.24578919095210205,65.06391610300513,0.3134958922264375,65.46754921333164,0.022916666666666665,18,0.6256023916666665,0.002868026991085902,3.8485529103062434e-06,33.17266666666666,0.020805982045771106,2.631945158405434e-05,55.99900000000001,0.6212372064410384,1.5899999999999963,-0.0010882989063310817
S065,9922.0,9951.984375,W,1.5443125,110.3423733556448,-299.84,263.2,563.04,2.3200000000000003,95.24571279732321,1093.75,1118.1233723958333,0.6643155155245636,0.16862135013758556,0.3259334884434076,65.14079518652706,0.2656171435229439,65.91661399070799,0.00625,6,0.6322945416666667,0.0023277490912031818,2.7032157940581053e-06,33.212666666666664,0.01569146972791861,1.3680559266644066e-05,55.799666666666674,0.5045227668026704,1.25,0.0008716321808898052
S065,9952.0,9981.984375,W,-1.176192708333334,73.37790006289323,-188.04,167.89,355.92999999999995,-3.255,105.06286100554624,1046.875,1018.1722005208334,0.42031604965456915,0.32499332258097585,0.3852251776558744,64.9910731650102,0.26019324924998066,65.7875368135941,0.03958333333333333,32,0.6361902666666667,0.001999186375059171,8.733743688624175e-07,33.251,0.0228546129552305,3.0451397149361168e-05,56.346666666666664,0.20622533522554626,0.6799999999999997,0.0003303473118346659
S065,9982.0,10011.984375,W,-0.8229062500000003,88.04264771257854,-246.22,212.56,458.78,-1.1099999999999999,98.59445663335953,1062.5,1041.8701171875,0.49890396363484185,0.36010794822525094,0.3745309566644658,65.00787065688847,0.2655233648031435,65.7875368135941,0.0625,39,0.6387732583333334,0.0023427104796788743,1.963456478802216e-06,33.287333333333336,0.016918103387266133,2.06944500581735e-05,56.64866666666667,0.29334545429502656,0.7700000000000031,-0.0004638195702635548
S065,10012.0,10041.984375,W,1.0819635416666662,87.02250098602806,-242.25,220.99,463.24,0.64,104.45567284305038,1078.125,1042.3014322916667,0.5641170814620154,0.4061164310337068,0.38436088501635485,65.02252051391537,0.2756677059831962,65.7875368135941,0.09166666666666666,47,0.6426262666666667,0.0022091141728957505,7.912402319987637e-07,33.31933333333333,0.012892719737208635,1.4166670509621714e-05,56.254333333333335,0.1080025719858345,0.3999999999999986,-0.00015746532049297878
S065,10042.0,10071.984375,W,-0.07680208333333335,87.78894199645342,-241.2,283.8,525.0,-5.02,83.92219863886332,1109.375,1066.0319010416667,0.6758474297235204,0.42746299181917496,0.3903123748998999,65.00936286938705,0.2765670196578905,65.7875368135941,0.10625,63,0.6471624500000001,0.002207087318352709,2.016692821368501e-06,33.333999999999996,0.006633249580712479,5.8333349157282555e-06,55.33533333333333,0.28617865437908246,0.8500000000000014,-0.00043784734099591493
S065,10072.0,10101.984375,W,-0.2856197916666672,79.38366595365106,-184.0,201.02,385.02,-5.795,68.25046352528719,1062.5,1053.7434895833333,0.5658081732255985,0.4568809849129202,0.45547880027505117,64.97403053580993,0.25686753714776994,65.7875368135941,0.06770833333333333,53,0.649809375,0.0022650520305374264,3.685072614223162e-07,33.36300000000001,0.019174636024357716,2.3854173137523353e-05,54.72933333333334,0.2274633059540719,0.6300000000000026,-0.00039388899573811794
S065,10102.0,10131.984375,W,0.49303124999999937,89.69169886152058,-426.45,202.16,628.61,-2.135,88.68162425515884,890.625,958.8704427083334,0.5759616053465139,0.49434299833212964,0.48812282152024905,64.97159818178766,0.29185562240282004,65.7875368135941,0.10208333333333333,67,0.6531393249999999,0.0023549552761588325,2.549196655055503e-06,33.40399999999999,0.012806248474864593,1.3125003560383825e-05,55.25,0.4317638243299224,1.7199999999999989,0.0007397918673480547
S065,10132.0,10161.984375,W,0.874588541666667,82.67302567026645,-244.47,295.6,540.07,-1.72,64.2635132935028,1078.125,1063.5660807291667,0.8773777217747591,0.5698126138745574,0.5461950137593309,64.9682341032887,0.27464977749545627,65.67343450741707,0.12291666666666666,76,0.6573340416666666,0.002293973464667201,1.8409777129388372e-06,33.431999999999995,0.010770329614270692,9.236113616568721e-06,56.99066666666668,0.21990806159746698,0.9199999999999946,0.0003862501047770458
S065,10162.0,10191.984375,W,-1.6650937500000005,86.7168646046789,-195.56,216.33,411.89,-5.46,66.8179856044654,1046.875,1027.2216796875,0.7344385315308709,0.48594726901577384,0.45780153807505813,64.9593978499068,0.2511758564421441,65.67343450741707,0.109375,60,0.6603758166666667,0.002145717148893468,1.7271541143538662e-06,33.45666666666667,0.016599866130651196,1.3888892656492076e-05,56.837,0.49691816898425717,1.6799999999999997,-0.0008472571742776626
S065,10192.0,10221.984375,W,0.7507187499999991,120.17993672815524,-569.92,509.2,1079.12,1.605,45.453257825463645,1093.75,1080.5257161458333,15.776670505789992,21.785519343857683,9.624531013105116,64.59952083127446,5.906020236707934,116.46887996370532,0.06979166666666667,30,0.5194847666666667,0.12683696284553211,6.052232544550896e-06,33.57466666666667,0.09076465293395967,0.00010444447277682187,57.366333333333344,1.713420523073331,4.899999999999999,0.0030134383174474596
S065,10222.0,10251.984375,W,-0.24808333333333318,79.44890300121973,-180.99,231.64,412.63,-1.9449999999999998,69.0669522737062,1078.125,1093.9371744791667,0.47285700798444347,0.38085561340735,0.17677362623014653,63.78925833738399,0.21722668610281792,63.93746945258312,0.0,0,0.5548066916666665,0.0031974032270886982,4.226961867122906e-06,33.648666666666664,0.01892675942210329,3.076389723412774e-05,62.147333333333336,0.5465829204145415,2.0500000000000043,0.0006340973942321497
S065,10252.0,10281.984375,W,0.1891666666666662,84.64236397886437,-279.98,262.72,542.7,-2.98,86.8647231740421,937.5,984.9853515625,0.4072050739151248,0.4030913530316532,0.49434299833212964,63.58977904892187,0.4453468789965651,64.28841264178172,0.059375,49,0.56488215,0.0023577228620358832,2.63811833716318e-06,33.711,0.025344295873693502,3.628473206508513e-05,60.86933333333333,0.9960285582697358,3.3800000000000026,-0.001770833813702749
S065,10282.0,10311.984375,W,0.15140104166666693,79.7558465246279,-230.75,233.95,464.7,-9.895,79.12165215299726,953.125,1001.9368489583334,0.5177313878166511,0.13188915142607024,0.2263462809256845,63.44728145494589,0.2207396133015074,64.26507605223851,0.2875,103,0.5697812,0.0026378199635304867,3.6953747003512014e-06,33.758,0.015143755588802096,2.0833338984740196e-05,57.48400000000001,0.5779250239722565,2.0,0.00026055562623579276
S065,10312.0,10341.984375,W,0.2647812500000001,73.8053454093524,-280.58,326.25,606.8299999999999,1.4449999999999998,50.401016596434786,1078.125,1072.7457682291667,0.20956925068657697,0.05581428468591172,0.0,63.68633472839015,0.07731233263693647,63.72597586541927,0.0,0,0.575374,0.0023701841911547726,2.5269351472805835e-06,33.79933333333334,0.016918103387265723,1.916667186595903e-05,57.62766666666666,0.7781031779626375,2.0900000000000034,-0.0013170489683835096
S065,10342.0,10371.984375,W,0.31080208333333326,85.95155489844747,-246.18,234.52,480.70000000000005,2.84,85.63974759332675,1015.625,993.603515625,0.22055554462286564,0.03225804701500421,0.045595976308831845,63.68239844162836,0.09153535758547346,64.08587988004847,0.0010416666666666667,1,0.5797287499999999,0.0022831549963811025,2.460611778594776e-06,33.841666666666676,0.014161763857498415,1.586805986004233e-05,56.10866666666666,0.36109770915301564,0.9400000000000048,-0.0006065279423090129
S065,10372.0,10401.984375,W,-0.32114062500000007,43.36165811497785,-194.2,277.86,472.06,-1.115,52.274672949913324,1093.75,1084.8307291666667,0.4422166387140533,0.3,0.4659918856589672,63.68962782651417,0.4133892275363027,64.08587988004847,0.0,0,0.5865169416666667,0.002681274122800056,3.870363680111669e-06,33.87866666666666,0.01802467444612706,1.2986114633818809e-05,56.299,0.4763496614882808,1.1799999999999997,0.0007991321612229158
S065,10402.0,10431.984375,W,-0.0536197916666671,99.51297216669388,-691.4,544.92,1236.32,-5.25,39.508038568003926,1046.875,1058.0078125,6.502547243943885,0.7651224257521727,1.7603608842246903,63.68268849373427,0.4804281528010942,67.07458535093602,0.04583333333333333,19,0.5835817583333333,0.013641826852854562,-4.727778843255987e-06,33.922999999999995,0.031533051443419405,4.031251093546843e-05,56.85000000000001,0.1740498013021941,0.5499999999999972,0.0002847222994580884
S065,10432.0,10461.984375,W,0.04739062500000042,63.5432706664777,-206.32,259.67,465.99,-4.66,98.50343786652861,968.75,991.11328125,0.46499771318135413,0.2761025876171552,0.382617935250035,63.84497246581277,0.36899526592397164,64.26507605223851,0.21770833333333334,139,0.5881071333333333,0.003075255281905696,4.322456467680252e-06,33.95666666666667,0.01813529401164713,2.291667288321074e-05,56.80266666666667,0.28808486403990125,0.75,-0.0004804862414513439
S065,10462.0,10491.984375,W,-0.5435624999999997,139.94096537772725,-542.69,720.09,1262.7800000000002,-13.274999999999999,82.79499372744783,1015.625,1082.03125,15.944997385489403,12.702935969619933,2.8656975105935767,64.25642327428288,2.12759284862741,88.07383266328314,0.053125,19,0.5109181583333334,0.1300374672614907,-0.00018793605032987472,34.018,0.05985538126740589,6.763890723711518e-05,56.946666666666665,0.2323694376538264,0.75,8.451391181475469e-05
S065,10492.0,10521.984375,W,1.1700572916666663,158.32475102994678,-374.17,343.76,717.9300000000001,-1.535,28.398959694197366,1015.625,1038.232421875,0.5893992645529476,0.3529390488770294,0.3560473960919935,64.90875079476808,0.3548876761676397,65.50572494064927,0.13020833333333334,86,0.247235275,0.010244540299563225,-9.922496832274527e-06,34.158999999999985,0.009433981132056308,6.493057316909947e-06,56.166333333333334,0.23591641646048164,0.8999999999999986,-0.00038281260384456436
S065,10522.0,10551.984375,W,-1.1399270833333344,162.85964650292345,-332.2,353.62,685.8199999999999,-5.18,47.410491102079476,1062.5,1077.6285807291667,1.4287095357349582,0.46812342382170485,0.6420918166755177,64.83621487895228,0.4313623809044928,66.47555941848101,0.22604166666666667,125,0.24306204166666667,0.01620908335028842,-1.875218282123015e-05,34.20666666666666,0.022110831935701836,3.229167542634293e-05,54.317666666666675,0.660483072371192,2.0,-0.0011178822476894123
S065,10552.0,10581.984375,W,-0.25859375000000107,166.71546164611317,-321.58,331.15,652.73,-3.41,94.90646286023158,1046.875,1104.3294270833333,0.41826646004338214,0.0,0.49264997011626366,64.7769902183337,0.4243582455499329,65.37583651472461,0.41458333333333336,187,0.229987325,0.006146490902895326,-5.722281717198818e-06,34.264,0.020752509888365446,2.4930562318404463e-05,53.11266666666667,0.3899139506210171,1.3200000000000003,-0.00033472231302146126
S065,10582.0,10611.984375,W,1.6127395833333333,172.59970653791348,-325.57,331.29,656.86,-4.0,7.793449911774437,1031.25,1023.9827473958334,0.7689384084838438,0.2494438257849294,0.4702049180203835,64.6727802928454,0.42356328926492237,65.7419196555744,0.315625,174,0.224467875,0.039329347939031166,6.3802710449953985e-06,34.305,0.015220600075774894,1.3506948108438543e-05,53.79933333333334,0.2540857248165579,0.8100000000000023,0.00045229178935866666
S065,10612.0,10641.984375,W,-0.1775572916666673,164.86559840872988,-301.96,310.22,612.1800000000001,-3.29,16.7771788255813,1062.5,1057.8043619791667,0.5691695644142926,0.42934361238988983,0.3886352099191334,64.72216575059399,0.37584644821843954,65.64297372910524,0.14791666666666667,104,0.29318380000000005,0.003515346485056632,-1.910892445446085e-06,34.32899999999999,0.012206555615733139,1.2187503306072248e-05,54.85766666666667,0.2986378334296506,0.8800000000000026,0.00046413207034832587
S065,10642.0,10671.984375,W,0.052838541666666454,158.35228517557965,-297.38,316.41,613.79,-5.975,32.43000281001512,1062.5,1070.6787109375,0.6071907077315624,0.24065881796989416,0.19324531042175383,64.69307747483813,0.21770048520314236,66.1362230551458,0.07708333333333334,51,0.2766508416666667,0.02433616682498014,-3.1534488806013664e-05,34.339666666666666,0.011100550536897664,1.1631947599813757e-05,55.32733333333332,0.1776313285681581,0.5,0.00031652786364145613
S065,10672.0,10701.984375,W,-1.8262135416666674,161.41675575776094,-294.52,319.3,613.8199999999999,-7.33,20.599682614742516,1062.5,1055.46875,0.39567431016206017,0.35501736068661327,0.12447371850002002,64.68064619406533,0.21517338313291523,65.49045732013177,0.15,93,0.2541195083333333,0.009039242354861969,-3.2995870495841614e-06,34.37266666666667,0.01931033114394594,2.3611117516035407e-05,55.358999999999995,0.10338762014864188,0.29999999999999716,-0.00016697921196267548
S065,10702.0,10731.984375,W,1.7472916666666676,164.77831632529282,-304.91,315.19,620.1,-2.41,15.84194676865478,1109.375,1107.5113932291667,0.5139872981974685,0.4679843283671176,0.14683805681959822,64.76737553071116,0.2749700538309192,65.49045732013177,0.3229166666666667,130,0.25654239166666665,0.012499604013925024,7.56137857025243e-06,34.405333333333324,0.014313940369055294,1.7847227063591105e-05,55.15566666666667,0.13843610640131288,0.38000000000000256,-0.00022677089484887607
S065,10732.0,10761.984375,W,0.46419791666666727,163.57056405061343,-287.05,308.3,595.35,-5.91,16.012440600067062,1093.75,1080.1920572916667,0.2925507434617113,0.4999121016488799,0.15925921720229852,64.84868496101576,0.29250440497284663,65.19202405202648,0.034375,20,0.27236017500000004,0.009976777418637828,1.4241471094149064e-05,34.43333333333332,0.017950549357116763,2.145833915428244e-05,55.278666666666666,0.11669713887761891,0.3500000000000014,0.00020743061182471072
S065,10762.0,10791.984375,W,-1.6132343750000004,170.22726101269024,-298.42,315.03,613.45,-10.399999999999999,23.436228399749492,1093.75,1070.556640625,0.14359895446075582,0.4822804174354031,0.3108009366495253,64.85411716901623,0.3271511793966519,65.63535632568775,0.0125,12,0.2870466416666667,0.003219770710769725,2.7567327356588375e-06,34.45933333333334,0.015260697523012057,1.7361115820613583e-05,55.731,0.1756767865522739,0.46999999999999886,0.0002912848012382806
S065,10792.0,10821.984375,W,-0.9408541666666679,158.44876922348456,-314.22,308.87,623.09,-6.0649999999999995,22.07545967809089,1062.5,1061.2386067708333,0.3148798271651512,0.4254172277991729,0.31416051883905177,64.92718426060803,0.3358977856256855,65.98484674529449,0.00625,4,0.289992425,0.004967670519909208,4.679673795484433e-06,34.489333333333335,0.011527744310527542,1.375000372992792e-05,56.21566666666667,0.16891187709045907,0.5500000000000043,0.0002994792479056127
S065,10822.0,10851.984375,W,2.192953125,155.46685453443487,-285.87,319.42,605.29,1.4300000000000002,23.411849785609533,1031.25,1028.7679036458333,8.573718067038103,3.3994733813979683,0.9681023820971736,64.68524884246449,1.6259096495335894,83.71977066380438,0.03333333333333333,11,0.24463101666666665,0.06916924350364394,-8.855811256459217e-05,34.50933333333332,0.020483055327649546,-4.583334576642359e-06,56.27166666666667,0.20342211176653213,0.7000000000000028,0.0001202430881735809
S065,10852.0,10881.984375,W,0.20828125000000075,163.3821925178559,-277.04,302.47,579.51,-9.2,36.5022077415298,1140.625,1118.2861328125,0.48619840486049404,0.26999871398870695,0.254795584597841,64.59870918506564,0.26906620619374105,64.8459713474939,0.0,0,0.19597166666666668,0.004108880738379032,6.869024432786576e-06,34.49100000000001,0.008306623862918219,5.520834830955887e-06,56.17633333333333,0.4032326320569252,1.1899999999999977,-0.0007222571403692331
S065,10882.0,10911.984375,W,0.038239583333332425,163.64145086490697,-291.36,314.43,605.79,-10.774999999999999,7.711323338622585,1093.75,1087.1907552083333,0.49095552383987784,0.0,0.4311933839647821,64.51423608678174,0.3870406597799235,64.8459713474939,0.0,0,0.20752018333333336,0.0037723364510237143,6.035853633857859e-06,34.484666666666676,0.012036980056845788,-1.180555875801721e-06,55.144000000000005,0.4410411923316612,1.3700000000000045,-0.0007021529682489609
S065,10912.0,10941.984375,W,-0.29918229166666704,157.9124910301328,-282.82,297.13,579.95,-9.545,14.129216677848033,1125.0,1122.4283854166667,0.49402242835950494,0.0,0.44807531105272913,64.49446786685264,0.4057785580559782,64.8459713474939,0.0,0,0.2129635083333333,0.001392806333724793,1.4394103297011572e-06,34.505333333333326,0.0183908189655116,1.506944853229377e-05,53.73233333333334,0.11836900870676499,0.4399999999999977,-0.00012413197811739858
S065,10942.0,10971.984375,W,-1.1143854166666671,162.94922572639192,-274.53,300.99,575.52,-12.04,0.0,1140.625,1140.625,0.4883361774661204,0.0,0.4979896651510171,64.37939949530684,0.42842224928783573,64.8459713474939,0.30625,147,0.21579198333333335,0.0014125557864106569,1.5831792489093039e-06,34.51733333333333,0.018607047649270125,1.6111115481530597e-05,53.94733333333333,0.20061461118827378,0.5200000000000031,0.0003443750934177229
S065,10972.0,11001.984375,W,0.4944270833333332,156.07363722403102,-272.94,283.61,556.55,-9.2,27.972374745718863,1078.125,1095.4427083333333,0.4938324034612688,0.0,0.2943625410196677,64.19119186854277,0.2781093836261622,65.05382386916237,0.09583333333333334,76,0.21978363333333334,0.0016815387889932486,2.282199837836324e-06,34.556666666666665,0.013984117975602851,1.5555559775271887e-05,54.943,0.3871360656582296,1.2000000000000028,0.0006937154659601408
S065,11002.0,11031.984375,W,-0.3144947916666668,157.08271425482,-275.88,287.1,562.98,-9.145,18.616198924491545,1078.125,1065.966796875,0.4182664600433822,0.0,0.17399263633843817,64.1742537436165,0.17544643034845497,65.05382386916237,0.03125,27,0.22446915,0.0014077705521497502,1.3809877878113617e-06,34.57933333333334,0.018427033281447916,2.7083340680161376e-05,55.74333333333333,0.11677138157766054,0.44999999999999574,0.0002075695007512755
S065,11032.0,11061.984375,W,0.7813958333333342,156.52785755367418,-276.59,281.59,558.18,-8.395,34.25168740353614,1125.0,1111.5071614583333,0.7749152899493095,0.4706489314411185,0.9394054709702774,64.17439763908116,1.0102702581127792,75.82875444051551,0.027083333333333334,12,0.2248748,0.0016255942533937163,-1.700631971742619e-06,34.60800000000001,0.01399999999999972,1.4236114972904531e-05,55.745,0.1627011575455643,0.4799999999999969,-0.0002716320181293444
S065,11062.0,11091.984375,W,-0.9009218749999997,159.81569205922457,-335.2,341.62,676.8199999999999,-12.9,10.443585898799881,1062.5,1056.6487630208333,0.42425895361467886,0.44111108924573134,0.17950549357115014,64.18812007376937,0.2847362440918478,65.52098900352466,0.11979166666666667,65,0.22573929999999998,0.0014627612165581442,1.4099535074743665e-06,34.63833333333333,0.016141733350403205,1.857639392805665e-05,55.846000000000004,0.10707007051459311,0.4200000000000017,-0.00014159726063293684
S065,11092.0,11121.984375,N1,1.2035625,162.60835230545845,-288.98,303.08,592.06,-9.475,0.0,1046.875,1046.875,0.5326778198143998,0.38358093226491613,0.16349853465194522,64.43650743450509,0.24590237148563504,65.52098900352466,0.00625,6,0.22582464166666666,0.0013330585933348487,-1.790276093282332e-07,34.661333333333324,0.010241527663825365,8.958335763437627e-06,55.46566666666666,0.090210248247573,0.4199999999999946,-7.118057486452408e-06
S065,11122.0,11151.984375,N1,-1.390239583333333,163.25722870559238,-283.15,309.84,592.99,-13.015,0.0,1046.875,1046.875,0.48126240063388376,0.3295340117962872,0.06454972243679027,64.46486619694423,0.19839239755963217,65.31462317123173,0.278125,113,0.22739384999999998,0.0013726014634627135,1.1783722814594897e-06,34.70166666666667,0.024506235034284004,2.9687508053252004e-05,55.144666666666666,0.3394675569509141,0.9500000000000028,0.0005024306918486031
S065,11152.0,11181.984375,N1,0.7432812500000007,161.57732459827884,-274.09,295.24,569.3299999999999,-11.925,8.602311464664322,1046.875,1048.5107421875,0.6473093013368666,0.15925921720229846,0.28984550482397803,64.48752765214566,0.2466995076613413,65.52098900352466,0.01875,12,0.22661473333333332,0.003841487159363615,-3.3990026581495823e-06,34.730333333333334,0.014255603186895359,1.0312502797445811e-05,55.74733333333333,0.12556361822686685,0.3400000000000034,-0.00017444449176554219
S065,11182.0,11211.984375,N1,-1.0535937500000006,163.27417916939325,-286.31,316.18,602.49,-13.84,0.0,1046.875,1046.875,0.33664371827728434,0.06451609403000842,0.44456595561163803,64.4497841871559,0.3768088317632856,65.37583651472461,0.022916666666666665,17,0.2299232916666666,0.0014878156101918538,1.534662091650959e-06,34.76133333333333,0.016069294390926088,1.770833813702917e-05,55.206,0.4128728617867731,1.0100000000000051,-0.0006769446280774266
S065,11212.0,11241.984375,W,1.7462239583333343,164.76263714799015,-295.67,320.26,615.9300000000001,-6.85,0.0,1046.875,1046.875,0.5699925377191841,0.49998263858747016,0.24942425021882342,64.30356862738792,0.2887099746811314,65.03076195155643,0.035416666666666666,27,0.215866625,0.004427220200198051,-6.300845676227668e-06,34.79066666666667,0.014126413400278202,1.4791670679163417e-05,54.815333333333335,0.0651016299505799,0.25,0.0001147222533426255
S065,11242.0,11271.984375,W,-0.7408697916666676,149.31215687529894,-305.29,297.35,602.6400000000001,-9.2,36.07838606892544,1093.75,1072.0377604166667,1.0191903232127724,0.4180692538822566,0.3252936707380305,64.33304944848325,0.34217245994138074,65.6505902486794,0.08645833333333333,47,0.21434041666666664,0.0026796880433591977,2.4415991866317306e-06,34.811,0.01640121946685661,1.0034724944316541e-05,55.138333333333335,0.1073959444713298,0.3999999999999986,0.00017815977055115392
S065,11272.0,11301.984375,W,0.9348177083333328,148.43358434473348,-263.06,279.95,543.01,-10.085,41.387320136025025,1109.375,1094.4742838541667,0.4156641585563198,0.1015291077584267,0.14707433282187615,64.29775167887512,0.14847797270133792,65.1536645170477,0.05416666666666667,32,0.21551453333333334,0.001667754213172781,4.902340739567264e-07,34.82266666666666,0.010624918300338142,3.4722231641224443e-06,55.21933333333333,0.22048330750623446,0.6499999999999986,-0.0003644445433063536
S065,11302.0,11331.984375,W,-0.2736354166666672,154.85064063178885,-315.77,317.35,633.12,-12.045,37.154905707878605,1031.25,1053.2877604166667,0.4689999333688652,0.10152910775842668,0.16110175679261435,64.33941398962126,0.16837202497053083,65.37583651472461,0.16875,82,0.24808924166666663,0.024963182223024582,1.8398589409339568e-05,34.838,0.011661903789690719,8.263891130613281e-06,54.87000000000001,0.09612491872558276,0.259999999999998,0.00016750004543729383
S065,11332.0,11361.984375,W,0.09394791666666791,172.99611997647216,-339.39,321.05,660.44,-11.535,0.0,1015.625,1015.625,0.44752284043200896,0.09636964965693294,0.24148700218070168,64.44135940699438,0.23440942510439675,65.37583651472461,0.013541666666666667,11,0.26935044166666666,0.015599521648539864,-1.6214432566849118e-05,34.867333333333335,0.01913693345920817,1.229167000099461e-05,55.419999999999995,0.37021615307817146,1.0799999999999983,0.0006586807342341404
S065,11362.0,11391.984375,W,-2.3496927083333343,158.90574807150932,-273.65,293.37,567.02,-18.085,9.834339413657458,1015.625,1019.1080729166666,0.6196857402479636,0.08533405557962581,0.14789832632777006,64.30723215865035,0.17881674076603687,65.37583651472461,0.16770833333333332,80,0.23981739166666666,0.005711037323020271,-7.834928991679956e-06,34.896666666666654,0.013984117975601045,1.0138891639238532e-05,55.812999999999995,0.187938819832412,0.6199999999999974,-0.0003329514792077569
S065,11392.0,11421.984375,W,0.7228333333333339,157.6190901033027,-270.24,302.44,572.6800000000001,-11.785,30.845293354490344,1109.375,1083.1380208333333,0.5013425984710124,0.1356408400888169,0.1986035230679456,64.3534955241095,0.19501408944841672,65.1536645170477,0.005208333333333333,5,0.23692490000000002,0.003240113003173397,4.156941231809141e-06,34.923333333333325,0.017384539747207602,1.402778158305788e-05,55.34400000000001,0.042864126415143124,0.1700000000000017,3.618056537016227e-05
S065,11422.0,11451.984375,N1,1.6027552083333325,164.0492768419195,-291.69,303.14,594.8299999999999,-12.195,0.0,1109.375,1109.375,0.318518434404597,0.22838645595544604,0.16827350421923892,64.32128809878037,0.18825243785546972,65.37583651472461,0.09166666666666666,58,0.24190929999999997,0.0017306495052436229,-1.2971327303419957e-06,34.960666666666675,0.016110727964792203,2.0555561131607497e-05,55.37133333333333,0.09164181481300945,0.22999999999999687,-0.0001560417089956858
S065,11452.0,11481.984375,N1,-0.26484895833333344,154.59049496127832,-270.38,285.64,556.02,-13.95,41.17487835933359,1078.125,1073.0061848958333,0.31805991475663825,0.3388075878684275,0.1682735042192389,64.29181375265541,0.23313313906914937,65.37583651472461,0.1125,81,0.24399051666666663,0.0015600003738425415,1.4337009097495917e-06,34.97666666666667,0.013984117975602398,1.3055559097103227e-05,55.31233333333334,0.02728654532100995,0.0799999999999983,-9.062502458360977e-06
S065,11482.0,11511.984375,N1,-1.470296875000001,159.62098132133127,-349.42,311.98,661.4000000000001,-18.955,90.48888409037266,1265.625,1196.38671875,0.4525966747557918,0.14963787306546278,0.10197698542100349,64.34510444003294,0.15556756704801847,65.1536645170477,0.215625,118,0.24515408333333336,0.0014836157666510384,-7.541312809600885e-07,34.991,0.01300000000000042,1.5937504323325146e-05,55.523999999999994,0.11923645974840678,0.3500000000000014,0.00014659726198927472
S065,11512.0,11541.984375,W,0.3567864583333339,162.44386793801337,-307.18,295.99,603.1700000000001,-10.095,70.3014746604891,1265.625,1196.5576171875,0.46611644460430224,0.2964617006133432,0.3167146345248704,64.31158529873936,0.28357191263602055,65.27633568147036,0.06145833333333333,38,0.24179181666666666,0.0030852551568801494,-1.5046427692715876e-06,35.01366666666666,0.01662995957768874,2.1284727996074547e-05,54.903000000000006,0.28247890776717005,1.0300000000000011,-0.0004993404132325339
S065,11542.0,11571.984375,W,0.7841302083333329,152.49038573578216,-279.79,287.08,566.87,-8.6,74.06480852652439,1281.25,1233.935546875,0.6044395935262863,0.5533829044060621,0.5158921866668353,64.29998108295106,0.44127587607099533,65.87108622149782,0.20208333333333334,115,0.2416104583333333,0.004282427607669574,-5.8548416489913315e-06,35.027333333333324,0.015477582354991295,-1.8055560453438668e-06,54.06333333333334,0.1532391014794275,0.46999999999999886,-5.583334847909879e-05
S065,11572.0,11601.984375,W,-0.025546874999999324,141.80190421930786,-262.96,267.66,530.62,-5.9,78.69017405768327,1093.75,1121.1100260416667,4.475686147738194,2.8851855728757823,1.2427039675810434,64.47128972172467,1.529123371119956,77.85884663928692,0.05520833333333333,15,0.23945450833333334,0.030789383745320358,-7.0234218271001e-06,35.039,0.014224392195566765,4.7569457348474415e-06,54.674666666666674,0.15003851357420042,0.6700000000000017,0.0002516667349356377
S065,11602.0,11631.984375,W,-1.0491562499999993,116.82896503372177,-223.29,281.43,504.72,-15.344999999999999,105.25923275112676,1093.75,1067.138671875,1.9251891028148955,0.6170668394712198,0.34175399036522686,64.61888814987887,0.4285665332776324,69.49100661236676,0.030208333333333334,15,0.23976408333333332,0.01608273645589339,8.942735498788928e-06,35.007333333333335,0.02308438625757332,-3.291667559588465e-05,56.275,0.6489825370018312,1.9299999999999997,0.0009387155324206632
S065,11632.0,11661.984375,W,1.4091562500000008,133.79723539400862,-756.21,456.63,1212.8400000000001,-4.485,21.869961597339337,1125.0,1118.2291666666667,12.466170193991237,18.623130848602408,5.0012575458508985,64.20198804170666,4.72818920509982,118.27510304370908,0.03229166666666667,14,0.45584424166666665,0.13225485070266144,0.00020042749469061807,34.98966666666667,0.024287628309262517,1.0868058503705683e-05,57.26166666666667,1.8266674270071415,5.07,0.0027844799220051873
S065,11662.0,11691.984375,W,-0.6535833333333333,88.13151031255633,-250.12,184.53,434.65,6.79,69.66411835057178,1093.75,1070.7845052083333,0.4983033279010108,0.3497751633986546,0.37080407187923675,63.34406329106742,0.3714553951391971,64.32728814430156,0.16458333333333333,120,0.5663871583333333,0.006773636798889043,1.1805605850044976e-05,34.982333333333344,0.011455226851627328,-5.590279294238185e-06,59.745,0.6893656504352389,1.9200000000000017,-0.001082326682488792
S065,11692.0,11721.984375,W,0.2388854166666664,80.05612541827684,-233.72,144.75,378.47,2.52,49.421738877284696,1078.125,1078.7760416666667,0.36010794822525094,0.3041220715025465,0.23825719937822562,63.39338390132069,0.24942107590897872,64.32728814430156,0.06041666666666667,53,0.5898577083333334,0.006077360765436248,1.0232193964896366e-05,34.97966666666667,0.010482790129012333,1.0763891808782231e-06,58.352666666666664,1.7863723638206617,4.869999999999997,-0.002786736867061866
S065,11722.0,11751.984375,W,-0.3116666666666668,92.14327321392695,-319.27,331.86,651.13,5.720000000000001,38.86831890016458,1085.9375,1074.5768229166667,0.12489144591960206,0.5016465942828232,0.09636964965693294,63.382017208579825,0.0973545305845741,64.38167441127949,0.013541666666666667,10,0.629765,0.009486558229059338,1.3152724488043763e-05,34.98400000000001,0.01227463509301529,1.3055559097103722e-05,55.909,0.8086876199538772,2.210000000000001,0.0014170489955102523
S065,11752.0,11781.984375,W,0.37911458333333364,78.9340734677746,-137.89,199.52,337.40999999999997,0.1,40.71789334276692,1078.125,1081.6975911458333,0.032258047015004204,0.4443901876604488,0.11557806855349137,63.3790782764203,0.10576781830778656,64.32728814430156,0.013541666666666667,13,0.643224,0.004205483771220627,5.65312696753662e-06,34.994666666666674,0.014996295838936238,1.152778090488799e-05,57.82333333333333,0.27360961646517873,1.0,0.000305486193979544
S065,11782.0,11811.984375,N1,-0.12134895833333358,80.53683302599745,-225.46,169.13,394.59000000000003,2.3449999999999998,44.25541553177197,1062.5,1061.4664713541667,0.11557806855349137,0.46837484987987993,0.10152910775842672,63.373848741727485,0.10248899443410008,64.32728814430156,0.010416666666666666,10,0.6540145916666666,0.004349456877005521,-3.3703830757332536e-06,35.00966666666667,0.016428295373802092,6.979168559886952e-06,57.011999999999986,0.5973909942407899,1.519999999999996,-0.001035000280761794
S065,11812.0,11841.984375,N1,-0.7429999999999999,78.11847366980489,-212.58,171.77,384.35,-7.205,110.81099722523923,1031.25,997.8190104166666,0.2313813440813431,0.20912350152216008,0.21794494717703367,63.38606980699065,0.2138638741002244,64.65291950097846,0.05,38,0.6566722333333334,0.002936543690387665,3.534234465666914e-06,35.016666666666666,0.01598610507770934,2.0138894351914542e-06,56.00933333333334,0.19177996651255222,0.6199999999999974,0.00014243059419232935
S065,11842.0,11871.984375,W,0.932833333333333,79.00377790276691,-291.64,263.9,555.54,-2.8899999999999997,46.76894729991568,1015.625,1019.1569010416666,0.28256636388643286,0.1015291077584267,0.23825719937822562,63.38177587449615,0.23378122637862042,64.28841264178172,0.06041666666666667,52,0.6627560750000001,0.0019697569061625157,1.7253735149125e-06,35.01200000000001,0.016613247725836208,6.944446328244591e-08,56.74433333333333,0.6748366880627907,1.8800000000000026,0.0011462155887086568
S065,11872.0,11901.984375,W,1.0503125000000002,218.52581418523306,-600.46,649.59,1250.0500000000002,0.34500000000000003,41.947308987084845,1046.875,1059.1715494791667,0.4527009510059225,0.07210109366946754,0.3342289400620479,63.376792228090935,0.3321624262238248,64.28841264178172,0.128125,97,0.6629374916666667,0.002061324824782313,-7.877087640268932e-07,35.026333333333326,0.015595583420385561,2.048611666832629e-06,57.36466666666666,0.6561185529731316,1.6000000000000014,-0.0011242364160797575
S065,11902.0,11931.984375,W,0.4775885416666682,259.543180101612,-674.67,644.57,1319.24,-1.665,0.0,1046.875,1046.875,0.49914858064063006,0.24206145913796356,0.4674101220793386,63.49255655146195,0.3643659690573671,64.87680633323437,0.3145833333333333,113,0.6638234083333333,0.0023231157974289264,2.2122564594879563e-06,35.02233333333333,0.015423647068345717,6.006946073932425e-06,56.57633333333334,0.35506321815824404,1.25,-0.00025350701321262315
S065,11932.0,11961.984375,W,-2.4893958333333357,247.0679211118911,-547.32,653.5,1200.8200000000002,3.75,0.0,1046.875,1046.875,14.479294963460372,13.531589158887826,6.1863592347678305,64.29900283285174,6.1894319637797555,144.11453778158537,0.06145833333333333,22,0.45116039166666666,0.23455185420706354,-0.00037725486687686276,35.03099999999999,0.02454248017893298,2.9340285736839402e-05,56.53733333333334,1.1045630609229857,3.75,0.0017400699164686188
S065,11962.0,11991.984375,W,0.8300104166666652,208.77147463719126,-429.13,429.52,858.65,-4.26,0.0,1046.875,1046.875,0.645174395028197,0.5384912935822537,0.48043310899876807,64.51149700746113,0.41967708578650265,65.4217089351845,0.14791666666666667,86,0.11881465833333334,0.0057416611947180025,-8.27310923207173e-06,35.08800000000001,0.014000000000000328,1.27083367806905e-05,61.436,0.6389345297707218,2.490000000000002,-4.770834627504982e-05
S065,11992.0,12021.984375,W,-2.400994791666666,234.20763593666547,-399.32,475.83,875.15,-19.265,0.0,1046.875,1046.875,0.3887733893464018,0.26836818808308854,0.27638539919628335,64.45870767868676,0.2776467664853215,65.33758489567853,0.08333333333333333,70,0.11169557499999999,0.0026039032101267375,-9.611463110748446e-07,35.14066666666666,0.016719914938644474,2.0416672205041666e-05,59.628,1.0021723072073654,3.8300000000000054,-0.0016254171075892761
S065,12022.0,12051.984375,W,3.962651041666666,247.40529978219087,-407.23,510.9,918.13,-12.18,0.0,1046.875,1046.875,0.2539958442354695,0.06441510347391793,0.16532992583014122,64.43668445889696,0.15189122603581784,65.33758489567853,0.028125,24,0.10837616666666666,0.0019669929898762273,-2.97104247261351e-07,35.168,0.019899748742132867,2.5555562487945942e-05,53.83366666666667,0.9287105158348443,3.3999999999999986,-0.0011291322507411706
S065,12052.0,12081.984375,W,-0.47555208333333426,245.89802725970787,-405.24,500.92,906.1600000000001,-19.87,0.0,1046.875,1046.875,0.3754496725224597,0.03225804701500421,0.20453835214941968,64.45042630460968,0.18497518953452394,65.31462317123173,0.04375,36,0.1090272,0.0026537720154527203,-1.1000766873037895e-06,35.205666666666666,0.02170765354021916,2.434028438050115e-05,54.36633333333334,0.3551852411848716,1.2299999999999969,0.0006398265624529519
S065,12082.0,12111.984375,W,-3.3696458333333323,244.07890266195935,-402.61,498.03,900.64,-25.4,0.0,1046.875,1046.875,0.8741042041554441,0.6498898143788171,0.368691144078919,64.58229937568221,0.30879985387887793,65.36818798161687,0.05625,33,0.10229246666666666,0.012568124975464275,-1.4853250991007756e-05,35.230333333333334,0.013287420951996505,2.2569450566811038e-06,55.647999999999996,0.4215084024468945,1.3999999999999986,0.0007418057567832453
S065,12112.0,12141.984375,W,2.479119791666667,243.6485752825039,-465.39,487.56,952.95,-19.58,0.0,1046.875,1046.875,0.4672615256292062,0.06441510347391793,0.35083605501715465,64.72189581196557,0.31483197382247363,65.30696746902278,0.004166666666666667,3,0.08296319999999999,0.007456776414331688,4.329619230039946e-07,35.24533333333333,0.01231079020841485,1.1319447515042868e-05,56.24766666666667,0.15656060239479883,0.47000000000000597,-0.00027795146428804965
S065,12142.0,12171.984375,W,0.6863697916666663,242.01646596271505,-412.69,502.21,914.9,-22.255000000000003,0.0,1046.875,1046.875,0.4619882679486809,0.26339134382131846,0.4189468857212756,64.67955120141511,0.3838268492282498,65.30696746902278,0.05,34,0.08548205,0.004215436946213286,-2.403733290943273e-06,35.27133333333333,0.013597385369580283,5.4166681360318465e-06,55.833,0.24757692407276832,0.779999999999994,-0.00033649314683516376
S065,12172.0,12201.984375,W,-0.1555520833333335,229.80396012622413,-457.59,468.82,926.41,-23.96,0.0,1046.875,1046.875,0.33134170638313687,0.2914805954090255,0.45825756949558394,64.62170257915257,0.4355713927854896,65.30696746902278,0.071875,58,0.07167088333333334,0.008962862562804487,-9.94447318372211e-06,35.28866666666668,0.010241527663824255,4.444445650076677e-06,55.451,0.11464001628285508,0.3500000000000014,0.00015038198523816825
S065,12202.0,12231.984375,W,-2.9900416666666674,225.9780981738476,-377.89,461.31,839.2,-26.759999999999998,0.0,1046.875,1046.875,0.49159162562933156,0.35808948825289777,0.4564164460470528,64.6536916580937,0.4367836765993382,65.30696746902278,0.10520833333333333,80,0.08161836666666665,0.011001676288891413,1.4485691429495287e-05,35.29866666666667,0.014313940369056135,1.173611429473681e-05,55.23466666666666,0.12867875590874475,0.3500000000000014,-0.0001762500478108855
S065,12232.0,12261.984375,W,0.5390468750000001,233.2957108156448,-369.86,464.73,834.59,-24.39,0.0,1046.875,1046.875,0.4211722542005033,0.14427741410983985,0.39286027122672174,64.75172288150507,0.3705408795810831,67.97793759742936,0.014583333333333334,10,0.10261264166666666,0.008247568819350981,1.2454587796925943e-05,35.32833333333333,0.01185561282918603,1.3368059181875004e-05,55.405,0.11851160280748957,0.35999999999999943,0.0002032292217961226
S065,12262.0,12291.984375,W,2.138572916666667,231.29106578086143,-373.38,470.8,844.1800000000001,-22.880000000000003,0.0,1046.875,1046.875,0.409182789906364,0.18742764807756854,0.17714153455327436,64.82943661658813,0.17789877960208073,65.74952471311104,0.0010416666666666667,1,0.12251821666666667,0.0069462794096112265,9.685363304406276e-06,35.332333333333324,0.010857664983268386,-3.298612005917561e-06,55.415666666666674,0.2101536474952453,0.6300000000000026,-0.0003639931542950195
S065,12292.0,12321.984375,W,0.1579114583333336,181.36039387794975,-881.6,461.19,1342.79,2.735,96.14062281714199,1046.875,1001.0660807291666,8.834339995214226,14.874181488626432,4.6458048392250255,64.27071612315815,4.150558076903807,141.7391971192161,0.020833333333333332,10,0.464926725,0.1365753791070437,0.00017179289317298532,35.29766666666667,0.0396386455649311,-6.149307223661921e-05,60.89966666666667,5.569559817037209,16.5,0.009779759597374022
S065,12322.0,12351.984375,W,-1.7069739583333334,115.69476526196055,-283.73,225.65,509.38,5.725,87.28023018646947,984.375,1035.3759765625,0.5109733358992423,0.43237950914741047,0.3146988612370386,63.765047942731876,0.30261779156292207,64.81512169239521,0.11145833333333334,82,0.5491498916666667,0.005980107200538335,1.0226131897279689e-05,35.23666666666667,0.011925695880000213,-1.0138891639240382e-05,74.92166666666668,0.6836328611827328,3.299999999999997,0.0009292016409509652
S065,12352.0,12381.984375,W,1.6568749999999994,403.8923979096323,-2650.37,3177.24,5827.61,-1.385,55.173214953071074,1109.375,1093.9615885416667,5.925270208178742,2.1176832266096577,1.4793001700316117,64.18779897240663,1.0903958354264542,82.28000972289685,0.03125,14,0.542383025,0.013518286988041115,-4.27474573425176e-06,35.24666666666666,0.020055478608656422,1.548611531198993e-05,69.58000000000001,5.650298517187681,17.059999999999995,-0.009900141574474167
S065,12382.0,12411.984375,N1,-1.4935729166666676,258.7328266846197,-1518.09,856.84,2374.93,2.895,0.0,1109.375,1109.375,0.19856254262406423,0.49567465072868105,0.33306629928922893,64.40510198648477,0.3331112584386604,64.57553716385176,0.0,0,0.550441375,0.0033996832721654617,5.35999255642159e-06,35.266,0.015832456116050518,6.250001695421629e-06,53.345666666666666,1.495840194970335,6.079999999999998,-0.0025564243045855866
S065,12412.0,12441.984375,W,2.5996510416666663,304.282257328847,-917.7,1348.25,2265.95,19.085,0.0,1109.375,1109.375,0.4696969601509041,0.5295274360744262,0.2770050014590591,64.38456880914211,0.2684975372568198,65.24568951279464,0.004166666666666667,3,0.5582328583333334,0.002565043242961778,3.742911388593581e-06,35.279333333333334,0.012364824660659628,2.638889604733723e-06,50.29233333333333,0.507422791061743,1.7000000000000028,-0.0006044098861788972
S065,12442.0,12471.984375,W,-3.055369791666665,292.1230912822195,-663.71,625.97,1289.68,-1.5750000000000002,0.0,1109.375,1109.375,0.4687627313085895,0.4168944689773287,0.3108009366495253,64.40571257242362,0.309604110149216,64.5600495662759,0.0,0,0.5668887666666665,0.0026573510015719705,3.7835717728873036e-06,35.29466666666667,0.013349989596334193,-2.847222994581138e-06,51.88133333333334,0.8313071367163617,2.4200000000000017,0.0014826392910805366
S065,12472.0,12501.984375,W,2.379973958333333,297.00875054878674,-704.09,634.99,1339.08,15.195,0.0,1109.375,1109.375,1.682998110185775,1.2755649619765441,0.4320041714690573,64.36840906194708,0.3758299711072939,65.54387843269576,0.010416666666666666,5,0.56999475,0.006700002160758357,-7.271138257144709e-06,35.31866666666667,0.014772346537440034,2.2152783787104295e-05,53.53566666666667,0.18535881119841358,0.730000000000004,0.00011690975393602159
S065,12502.0,12531.984375,W,-0.5842031250000003,112.93631616788872,-651.78,437.74,1089.52,10.59,0.0,1109.375,1109.375,0.48433691606555124,0.29233368669210874,0.11557806855349137,64.22508586591954,0.13621251262058137,64.56779382943171,0.003125,3,0.5663017416666667,0.0032470896417557114,4.857348756876292e-06,35.303999999999995,0.01380821011813903,-3.4027787008406142e-06,53.360666666666674,0.10112478540012938,0.3200000000000003,-0.00016527782261225625
S065,12532.0,12561.984375,W,-1.498932291666666,113.75024162774518,-686.36,423.83,1110.19,-0.16,0.0,1109.375,1109.375,0.6278269400612454,0.5447339038848846,0.37003513112120706,64.22291961126784,0.34146244980973056,65.03076195155643,0.04791666666666667,31,0.5777969083333333,0.0044936215294493235,6.912858429052296e-06,35.29866666666667,0.015216949614017834,-7.986113277483913e-06,53.477666666666664,0.24736859586904292,0.6999999999999957,0.0004410070640752656
S065,12562.0,12591.984375,W,0.8913906249999987,116.10963500696909,-683.13,465.79,1148.92,0.59,0.0,1109.375,1109.375,0.8723763990372632,0.3307172734082022,0.4759755606908826,64.10890006930944,0.379108915701089,64.79197481170026,0.14791666666666667,80,0.5874989500000001,0.002483551498862068,3.195278644552588e-06,35.300666666666665,0.011234866364236283,-1.944444971908934e-06,54.287666666666674,0.4284832422497865,1.5900000000000034,0.0007162849165269421
S065,12592.0,12621.984375,W,-0.1250312499999988,371.9171729386339,-2224.66,1716.8,3941.46,11.44,0.0,1109.375,1109.375,0.48588474392081915,0.2795007329547137,0.24999131929373514,63.842610731943175,0.22176548327656612,64.79197481170026,0.065625,37,0.5946606833333334,0.00282733533556283,3.6641381467388515e-06,35.306000000000004,0.009521904571391357,2.7777785312991352e-06,55.73266666666667,0.20745976852285297,0.8500000000000014,-0.00025798618109434176
S065,12622.0,12651.984375,W,-3.408463541666666,249.830671138356,-1052.61,1280.51,2333.12,0.32,0.0,1109.375,1109.375,1.7361943035623124,0.4999989149293782,0.4984306970103489,63.855000555245475,0.18915361376378997,65.03076195155643,0.1,56,0.599730375,0.002176420746939415,2.4587925506707145e-06,35.31766666666667,0.014302291968616262,8.715280141947334e-06,55.218666666666664,0.14167411745112618,0.6000000000000014,6.055557198230404e-05
S065,12652.0,12681.984375,W,3.109416666666666,244.97957631214155,-1161.67,666.94,1828.6100000000001,6.375,18.256401425716405,1109.375,1104.7688802083333,0.5815299505041278,0.5877769737182066,0.3121091305537215,63.84257287125306,0.2137307778725893,64.52131430775415,0.06041666666666667,30,0.605686075,0.0025206348742677987,3.1746590643064023e-06,35.30533333333333,0.014313940369055946,-2.15277836175694e-06,55.45633333333333,0.6797376127758575,1.8699999999999974,0.0011742017074114872
S065,12682.0,12711.984375,W,-2.6419166666666665,153.79130746381784,-1084.36,472.5,1556.86,1.07,12.813287312785219,1078.125,1083.6588541666667,0.3341640040417613,0.4465142774872938,0.21794494717703367,63.87601424214228,0.20313264378677026,64.8459713474939,0.07916666666666666,49,0.6104357166666667,0.0019998457573161847,4.716086348764747e-07,35.3,0.01527525231651953,6.319446158704051e-06,57.235666666666674,0.4915260815957674,1.5,0.000633090449514553
S065,12712.0,12741.984375,N1,1.3560885416666655,286.5293655279625,-1552.85,1580.04,3132.89,6.87,7.5559408924848555,1078.125,1083.9518229166667,19.733250165884357,17.076127767732665,9.68944872872893,64.57518940186021,5.817280038575823,107.29398864801327,0.09375,34,0.5609015666666667,0.08278140388816535,-0.00011506070959763168,35.334333333333326,0.043945673532466915,5.892362709516731e-05,57.3,0.455777723603659,1.8700000000000045,0.0002581945144841903
S065,12742.0,12771.984375,N1,1.899776041666667,101.02800991403039,-705.05,347.72,1052.77,-5.555,62.130189469515514,1125.0,1138.9729817708333,3.5463594828495917,1.7040342246823827,2.2337336394973826,64.98362446714205,1.3995568751539493,77.72387020729218,0.025,10,0.41612898333333326,0.0019964810959257526,6.589906301515404e-07,35.22166666666666,0.0675318854731281,-0.00010684030676006764,60.247,0.4481379995789992,1.8299999999999983,0.0001765625478956566
S065,12772.0,12801.984375,N1,-0.26091666666666646,76.437034574035,-133.1,151.17,284.27,-8.969999999999999,39.74281357901813,1125.0,1114.5100911458333,0.44910090543650527,0.49607837082461076,0.27480264382926806,64.9837435598766,0.31877046736232945,66.09841147864296,0.165625,98,0.41740975833333327,0.0019125156992638188,1.4586266977611194e-07,35.12433333333333,0.018381754238615575,-2.7951396471190094e-05,58.718666666666664,0.939988416004273,3.229999999999997,-0.0016138893266843875
S065,12802.0,12831.984375,N1,-0.6012552083333332,78.8431201219223,-136.02,158.39,294.40999999999997,-13.135,40.35223577183281,1125.0,1116.4306640625,0.4377181995556299,0.46876273130858953,0.3348857081154703,64.98402940622385,0.3093764659752978,65.5286197016235,0.19791666666666666,122,0.4198111166666666,0.00201654742560701,1.2524061557091382e-06,35.09066666666668,0.015040685563571209,-1.7986115990157207e-05,53.744,0.9329258634353889,3.1999999999999957,-0.001319653135756601
S065,12832.0,12861.984375,W,0.919338541666667,82.15043046606871,-136.46,156.34,292.8,-9.94,27.558679109689443,1093.75,1095.3125,0.3222624421139116,0.05581428468591172,0.4997872811395753,65.0642249086184,0.3141979854396702,65.612498809297,0.07916666666666666,54,0.42555346666666666,0.003145385241199486,4.6740468408330155e-06,35.064,0.010519822558707979,-5.486112599315256e-06,53.72533333333333,0.15628464060453542,0.529999999999994,0.0002804167427345759
S065,12862.0,12891.984375,W,-0.07808854166666634,83.74675390315183,-128.96,161.52,290.48,-16.28,31.44468908435685,1078.125,1079.4596354166667,0.5100285514202992,0.4555026222634606,0.3852251776558744,65.11818717374877,0.32569035082517883,65.612498809297,0.134375,90,0.43278994166666673,0.002393867757054232,2.52312199520453e-06,35.06733333333333,0.015260697523014602,6.2500016954221225e-06,54.452666666666666,0.2498123740374412,0.8599999999999994,0.00044972234421721647
S065,12892.0,12921.984375,W,-0.7281197916666661,105.63529971753161,-392.21,448.31,840.52,-12.125,48.83524253680401,1093.75,1077.8645833333333,20.271777984155435,27.066044782437842,9.89186713281491,65.2814809030083,5.850669572236579,100.92571525632107,0.07083333333333333,27,0.40606101666666666,0.08557702676604503,-7.453439912499976e-05,35.10366666666666,0.08848665938371104,9.225696947074895e-05,55.285333333333334,0.483244129699357,2.1000000000000014,0.0006711807376249819
S065,12922.0,12951.984375,W,1.1478489583333336,190.03045325302494,-733.87,568.18,1302.05,-5.744999999999999,45.29277913149512,1093.75,1117.7897135416667,34.72582036217991,22.90009151997572,20.28325073593152,67.21139081575072,15.444888138553168,157.0636813525011,0.09791666666666667,52,0.370468975,0.17968027575916906,7.756914105065677e-05,35.31833333333334,0.03194613522095464,5.343751449585319e-05,66.947,5.78630230227676,19.65,0.010425731994827471
S065,12952.0,12981.984375,W,-0.3515156249999995,139.78501628633745,-305.24,386.54,691.78,-6.71,67.06339441078072,1062.5,1076.7333984375,2.0949302229164792,0.9764095713591028,1.7908885786228208,64.24957665793204,1.0166444526876648,73.0,0.035416666666666666,14,0.508932975,0.015014785565381045,-1.948608818524522e-06,35.41599999999998,0.02484619353811357,3.5208342884210065e-05,84.39866666666667,2.3414735151656596,7.950000000000003,0.003134723072570279
S065,12982.0,13011.984375,W,-2.063317708333332,166.4994684747619,-287.9,316.71,604.6099999999999,-16.42,83.73395623787337,1234.375,1167.7734375,0.5034936537584163,0.2538249068419672,0.2791802701909447,64.32995787163917,0.28184552470624863,65.58200972827838,0.2708333333333333,127,0.5252097833333333,0.003787686237848751,5.1681823915425205e-06,35.510999999999996,0.027123175821917554,4.343751178317887e-05,73.30733333333335,6.634930762428666,22.330000000000005,-0.011954933798538899
S065,13012.0,13041.984375,W,1.5001875000000007,166.2313631181899,-583.77,365.95,949.72,-6.01,55.457443852101974,1234.375,1208.2438151041667,8.622855762046328,17.764977908912993,8.719237528683184,64.89097511988051,3.9232074026722765,106.83164325236227,0.041666666666666664,17,0.5108755666666667,0.02239157194859014,-2.4259652848213125e-05,35.59333333333334,0.019379255804998274,2.1736117007410847e-05,56.26599999999999,2.9043927649912185,8.630000000000003,0.0014781254009671773
S065,13042.0,13071.984375,W,1.101244791666666,136.9637365580396,-223.83,258.64,482.47,-14.225000000000001,36.700994288355176,1187.5,1175.8626302083333,0.38181168778673547,0.35398126274564307,0.05581428468591173,64.84356919774808,0.1583520240633193,65.4217089351845,0.003125,2,0.5006291916666666,0.0031527344303420002,-2.8225860521338034e-06,35.64733333333333,0.016918103387264374,2.020833881519371e-05,60.97633333333333,0.20296934634460292,0.6099999999999994,0.00033788203610081224
S065,13072.0,13101.984375,W,-2.0178281250000003,131.39936046989553,-214.04,243.17,457.21,-16.09,36.40871213374078,1125.0,1129.0201822916667,0.3064625113016816,0.4841229182759271,0.19982631347136331,64.55354297517445,0.21037114576456387,65.80273550544841,0.11041666666666666,62,0.49542065,0.0028221124376667443,3.089548147121348e-06,35.693,0.02208317610006943,1.343750364515681e-05,58.64933333333333,3.503953893659117,9.809999999999995,-0.0057420848909735455
S065,13102.0,13131.984375,W,2.5086718749999988,267.32688989589724,-546.21,587.06,1133.27,-6.324999999999999,0.0,1078.125,1078.125,1.0231431139372547,0.42784992176644787,0.3944053188733077,64.76904837879633,0.37990846065135225,67.12674578735364,0.06458333333333334,37,0.5000101583333334,0.008351786853717626,-1.0492776934889578e-05,35.71666666666667,0.01849924923401453,9.16666915328477e-06,52.35800000000001,0.2938752569827318,0.9500000000000028,0.0005221529194208221
S065,13132.0,13161.984375,W,0.6505208333333324,286.0020038439409,-483.48,574.89,1058.37,-25.35,0.0,1078.125,1078.125,0.8468666717507674,0.21358993356949718,0.38269875010683446,64.78476760134372,0.323604964762401,65.7419196555744,0.15104166666666666,93,0.5018246000000001,0.005353561590816591,8.169694490477018e-06,35.736,0.014742229591664623,1.21527810744308e-05,52.946000000000005,0.052573757712379564,0.1700000000000017,3.798612141550619e-05
S065,13162.0,13191.984375,W,-1.0397604166666647,269.7121023491316,-456.39,543.46,999.85,-29.884999999999998,0.0,1078.125,1078.125,0.11131708339493784,0.10642856726723117,0.25124473114984036,64.47073731341285,0.23064460015364457,65.31462317123173,0.07916666666666666,65,0.510075125,0.00173619236435416,9.3058597292371e-07,35.736666666666665,0.01490711985000008,5.833334915727713e-06,52.76366666666667,0.47276127402973867,1.4799999999999969,-0.0007378821446077858
S065,13192.0,13221.984375,W,-0.8311093749999984,265.00637056664266,-425.63,544.15,969.78,-27.810000000000002,0.0,1078.125,1078.125,0.07198059875565235,0.12401959270615269,0.18483053424390922,64.4393327242569,0.16925735585045265,65.30696746902278,0.040625,38,0.5120816083333334,0.0016197563669465309,5.920077560784819e-07,35.745333333333335,0.016069294390926737,-1.3402781413516722e-05,51.181666666666665,0.3757400105865163,1.220000000000006,-0.000676215461212961
S065,13222.0,13251.984375,W,1.2078854166666644,272.4499858244387,-491.19,540.16,1031.35,-21.42,0.0,1078.125,1078.125,0.04559597630883184,0.16532992583014122,0.38436088501635485,64.56684157759527,0.3476857206998357,65.31462317123173,0.18020833333333333,127,0.5134049749999999,0.0019116296776245595,-1.3691143036876839e-06,35.73733333333333,0.014126413400278894,3.2638897742768313e-06,50.08433333333334,0.33179997321009863,1.0399999999999991,0.0002317014517419312
S065,13252.0,13281.984375,N1,0.5124947916666661,271.6973157428114,-441.61,551.46,993.07,-25.545,0.0,1078.125,1078.125,0.5014562127776794,0.4236075534914362,0.45011452053585455,64.85338331321607,0.34929380526871373,65.31462317123173,0.26145833333333335,151,0.512508525,0.0025274626735209507,3.71277552972426e-06,35.72266666666666,0.014126413400277083,-9.236113616566824e-06,51.05566666666667,0.25305708622539885,0.8100000000000023,0.0004467709545277115
S065,13282.0,13311.984375,N1,-0.07828125000000057,273.8928402527773,-486.36,559.86,1046.22,-27.85,0.0,1078.125,1078.125,0.1462753717308556,0.24944382578492943,0.4994745502914926,64.8265080184895,0.4540372180560336,65.31462317123173,0.465625,223,0.5165644833333333,0.0019841238955910973,6.59294883706299e-07,35.702666666666666,0.018245242911205696,-7.916668814200033e-06,51.624,0.07391887445030569,0.18999999999999773,0.00012611114532094973
S065,13312.0,13341.984375,N1,-3.372916666666666,267.11684769679397,-448.29,539.85,988.1400000000001,-31.165,0.0,1078.125,1078.125,0.09126331714087295,0.18742764807756854,0.4105329784425228,64.59795671487088,0.3719721275400708,65.7419196555744,0.21145833333333333,151,0.5194674,0.001988271826654172,1.3263280507617378e-06,35.68733333333333,0.017307673314330717,-1.708333796748673e-05,51.757333333333335,0.11503429440340358,0.36999999999999744,-0.00011618058707155665
S065,13342.0,13371.984375,W,0.0422812499999992,266.84244625399594,-435.88,535.33,971.21,-29.415,0.0,1078.125,1078.125,0.11625205344661899,0.09636964965693297,0.3410547747430022,64.5241058816691,0.3047706861766424,65.31462317123173,0.13854166666666667,95,0.523416725,0.0017910377855799148,2.006795032225212e-06,35.670999999999985,0.013000000000001297,-6.56250178019348e-06,51.21033333333333,0.26306505321350143,0.9000000000000057,-0.0004539237342458049
S065,13372.0,13401.984375,W,1.8943437500000002,264.81789387628123,-427.04,537.82,964.8600000000001,-29.64,0.0,1078.125,1078.125,0.5271121533622823,0.17677362623014653,0.3736070773739289,64.71490342009766,0.3291787671842519,65.7419196555744,0.15833333333333333,70,0.5271629916666667,0.0018450655114648944,2.1162438466373192e-06,35.664666666666655,0.012310790208413991,-5.972223842291767e-06,49.87066666666668,0.3181292539554038,1.1299999999999955,-0.0005576390401581587
S065,13402.0,13431.984375,W,1.291119791666667,263.8519772866388,-426.5,542.88,969.38,-23.305,0.0,1078.125,1078.125,0.21578094200034334,0.15612494995995996,0.16827350421923892,64.45304915638751,0.18049776811139437,65.7419196555744,0.07604166666666666,69,0.5312188333333333,0.001935226064888075,2.0379775493645566e-06,35.65166666666666,0.007340905181846953,-1.4930559605726087e-06,49.17633333333333,0.1016032589153633,0.3300000000000054,-0.00017218754670886264
S065,13432.0,13461.984375,W,-1.794026041666668,257.32283253197835,-432.56,519.56,952.1199999999999,-29.47,0.0,1078.125,1078.125,0.4995657836784083,0.3570714214271425,0.09636964965693295,64.5891886930906,0.23768810446049032,65.74952471311104,0.39895833333333336,210,0.5343354166666666,0.0016559471991548877,1.0003826498433965e-06,35.643666666666654,0.012775845264489282,-8.715280141946718e-06,49.633,0.37249742728418045,1.0399999999999991,0.0006587849009290636
S065,13462.0,13491.984375,W,1.7539114583333333,262.7292914063401,-514.99,532.33,1047.3200000000002,-20.78,0.0,1078.125,1078.125,0.4900208594624655,0.3817392125376811,0.07198059875565237,64.58331659559866,0.2222255145951073,65.7419196555744,0.3958333333333333,213,0.5376012499999999,0.0019807347300517994,1.2921947949747251e-06,35.62833333333334,0.012671051872498687,-3.020834152787946e-06,50.35766666666667,0.18937939580523358,0.509999999999998,0.0003271875887553127
S065,13492.0,13521.984375,W,-0.7268802083333331,257.6619401286108,-424.67,526.76,951.4300000000001,-32.055,0.0,1078.125,1078.125,0.4979896651510172,0.3886352099191335,0.07198059875565237,64.61184957896003,0.22485696010389936,65.31462317123173,0.46041666666666664,225,0.5407606833333333,0.002155245817315401,1.7858164566559348e-06,35.61533333333333,0.010241527663825826,-7.372576772840875e-20,50.437000000000005,0.2576321667287164,0.6199999999999974,-0.0004449653984823666
S065,13522.0,13551.984375,W,-0.6385572916666661,257.95040512573956,-416.46,531.15,947.6099999999999,-32.865,0.0,1078.125,1078.125,0.49495720914932523,0.4261919050504779,0.05581428468591172,64.5988960674407,0.22202147341910777,65.31462317123173,0.4322916666666667,220,0.5445602749999999,0.001968066678081567,1.710806236655346e-06,35.60600000000001,0.017435595774162108,-1.1527780904888286e-05,50.17066666666666,0.1383698746917922,0.4200000000000017,-0.00016930560148263997
S065,13552.0,13581.984375,W,0.37546354166666634,253.4055942785402,-420.98,504.71,925.69,-20.12,0.0,1078.125,1078.125,0.4732137007708274,0.4739194123213355,0.03225804701500421,64.70023857706879,0.21154921502735072,65.7419196555744,0.0010416666666666667,1,0.5474422583333334,0.0017156713287409902,7.279301019775658e-07,35.58533333333334,0.016878651868230177,-2.0763894521456515e-05,50.393,0.2787848632906737,0.7999999999999972,0.0004960765234582569
S065,13582.0,13611.984375,W,-3.4059010416666666,260.48343993652895,-427.96,536.6,964.56,-33.795,0.0,1078.125,1078.125,0.4807480697800276,0.47794114111990815,0.10642856726723121,64.57469996386683,0.22546154862694606,65.31462317123173,0.36770833333333336,194,0.5499609583333334,0.001752166489405964,1.2109506323108257e-06,35.56066666666667,0.012364824660662284,-7.777779887636498e-06,50.68533333333334,0.1047770118977544,0.39000000000000057,7.069446362154594e-05
S065,13612.0,13641.984375,W,4.338026041666668,257.8153095372355,-452.92,529.66,982.5799999999999,-18.055,0.0,1078.125,1078.125,0.49984372557830503,0.46351240544347894,0.07198059875565237,64.62706673081722,0.22720204773926225,65.7419196555744,0.005208333333333333,5,0.5530030333333333,0.0017712087630266066,1.728437968868814e-06,35.55666666666668,0.011925695879999684,-1.0833336272064384e-05,50.629333333333335,0.21542103477196106,0.5800000000000054,-0.0003822223259066651
S065,13642.0,13671.984375,W,-1.424942708333333,251.08866267921852,-419.54,531.69,951.23,-33.31,0.0,1078.125,1078.125,0.4774323232290509,0.18998355191963334,0.03225804701500421,64.70622406584911,0.21502047994129606,66.18912297349165,0.0020833333333333333,2,0.5565677666666667,0.002064193667162927,1.336324147223336e-06,35.53766666666666,0.01801542548916139,1.0416669492376829e-07,50.487666666666655,0.06691702988693514,0.17999999999999972,9.434030336922562e-05
S065,13672.0,13701.984375,W,-2.122828124999999,254.94212155096685,-438.85,551.48,990.33,-36.08,0.0,1078.125,1078.125,0.45210613421764384,0.12801909579781015,0.03225804701500421,64.72070448056276,0.20205990777341218,65.7419196555744,0.0010416666666666667,1,0.5597592583333333,0.0017373825835426322,1.0848976467278833e-06,35.542,0.017397317800932392,-8.055557740764782e-06,50.443000000000005,0.06664082832618556,0.19000000000000483,-0.00011309030845548926
S065,13702.0,13731.984375,W,2.6031666666666657,247.3221161174341,-403.55,524.21,927.76,-28.095,0.0,1078.125,1078.125,0.36514688587455996,0.26170307270624255,0.045595976308831845,64.85996314892972,0.1638504993749201,65.30696746902278,0.08125,49,0.5619258500000001,0.002076543801809478,1.579157980457355e-06,35.51966666666666,0.018345450541089,-6.9791685598869765e-06,50.540333333333336,0.0696889916382457,0.21999999999999886,0.00010440975054517921
S065,13732.0,13761.984375,W,-0.058026041666665404,250.75247506777256,-415.02,519.0,934.02,-30.564999999999998,0.0,1078.125,1078.125,0.43714147015646493,0.25479558459784096,0.24206145913796356,65.12777525287247,0.27381370431049046,65.30696746902278,0.0,0,0.5633986833333334,0.0017822110845021227,1.6048819457687657e-06,35.49766666666667,0.007608474807008378,-4.6875012715656855e-06,50.63766666666667,0.08655184701797075,0.29999999999999716,-0.00010329863913266057
S065,13762.0,13791.984375,W,0.9714270833333345,247.57807485751022,-405.68,514.56,920.24,-29.295,0.0,1078.125,1078.125,0.06441510347391793,0.22219509383022443,0.4728570079844434,64.99860222869667,0.41887744707674257,65.30696746902278,0.0,0,0.5655973999999999,0.0019869186629888256,1.0334173810268352e-06,35.48533333333334,0.015216949614017585,-1.5208337458859378e-05,50.17766666666667,0.16167216485495853,0.5799999999999983,-0.00029024313428904465
S065,13792.0,13821.984375,W,-0.00944270833333339,253.540829208392,-417.24,504.58,921.8199999999999,-31.115000000000002,0.0,1078.125,1078.125,0.1899835519196333,0.24206145913796356,0.3886352099191334,65.11837818813862,0.35200210210628063,65.30696746902278,0.0,0,0.5678386416666666,0.0016000472794880927,1.3468491066756517e-06,35.47200000000001,0.014922019523732816,-3.819445480536159e-06,49.532,0.09119210492142374,0.36999999999999744,-5.333334780093047e-05
S065,13822.0,13851.984375,W,-0.4544427083333332,247.6088265477968,-421.99,500.37,922.36,-23.415,0.0,1078.125,1078.125,0.07905694150420949,0.2825663638864329,0.49789487400008003,64.81611890648239,0.4400529143235353,65.30696746902278,0.4510416666666667,216,0.570048025,0.0018425944184875948,1.1150118042024154e-06,35.45333333333333,0.018678567634829245,-2.3541673052753183e-05,49.87766666666666,0.295259019995815,0.8900000000000006,0.0005246876423306326
S065,13852.0,13881.984375,W,0.527114583333334,248.9634454160795,-430.61,504.7,935.31,-27.82,0.0,1078.125,1078.125,0.10152910775842669,0.20453835214941968,0.4090767042988393,64.60635584048646,0.3680376055635928,65.76473218982953,0.2125,153,0.5717452,0.0020479399958657587,1.3826405660374641e-06,35.431333333333335,0.011469767022725293,-5.833334915727613e-06,50.74833333333333,0.1342903156928636,0.5,0.00023434034134666432
S065,13882.0,13911.984375,N1,-0.16827604166666532,245.3112804260488,-406.5,510.13,916.63,-27.35,0.0,1078.125,1078.125,0.07880950133074055,0.1682735042192389,0.4643497170476388,64.69479548888675,0.41344485861935476,65.76473218982953,0.3145833333333333,200,0.5744667416666668,0.0019350705348721905,1.4967345640013409e-06,35.407999999999994,0.014922019523732689,-1.6180559944813485e-05,50.44833333333333,0.3167973414591034,0.9299999999999997,-0.0005623959858930088
S065,13912.0,13941.984375,N1,-1.7932239583333327,243.60425746179467,-409.12,506.09,915.21,-33.75,0.0,1078.125,1078.125,0.04564354645876384,0.16232629604869594,0.496462092586131,64.80360889818715,0.4396765145718412,65.30696746902278,0.4395833333333333,227,0.5764840583333333,0.0018443390925379944,1.1508134632197912e-06,35.39466666666666,0.013349989596332951,-1.2013892147864946e-05,49.566333333333326,0.23641042466204604,0.6999999999999957,-0.0004193403915311391
S065,13942.0,13971.984375,W,-0.9299375000000007,241.85957022769486,-422.68,513.2,935.8800000000001,-23.380000000000003,0.0,1078.125,1078.125,0.0,0.13188915142607024,0.499816589624523,64.86816326932282,0.44316369941555567,65.30696746902278,0.0,0,0.5787042166666666,0.0018213004885856239,1.6687513207333372e-06,35.36566666666667,0.015638272140984896,-1.4756948447521252e-05,49.315000000000005,0.041773197148410254,0.1699999999999946,-4.0590288788597185e-05
S065,13972.0,14001.984375,W,1.7049479166666677,238.5828934611385,-453.29,520.18,973.47,-14.86,0.0,1078.125,1078.125,0.12849286620924397,0.2957874817753449,0.4377181995556299,65.0653556689269,0.3933192207066895,65.7723346096214,0.0020833333333333333,2,0.5809134083333334,0.001771604383488926,9.274930901402607e-07,35.33500000000001,0.012845232578665064,-1.1076391893553121e-05,49.36433333333333,0.07990341391677501,0.22999999999999687,7.1284741559445e-05
S065,14002.0,14031.984375,W,0.16720833333333285,229.1598365686381,-473.37,474.19,947.56,-22.45,0.0,1078.125,1078.125,0.055814284685911715,0.3763632627602693,0.48968416514853963,64.76923284068982,0.4337555707700226,65.30696746902278,0.39895833333333336,207,0.581649875,0.001927897159958224,-1.6361386816782366e-06,35.31933333333333,0.011234866364233528,-5.416668136030884e-06,49.144000000000005,0.05332916650389311,0.1700000000000017,3.743056570924624e-05
S065,14032.0,14061.984375,W,-2.0635156250000004,254.7535662544474,-434.67,509.04,943.71,-29.625,0.0,1078.125,1078.125,0.2138336418548047,0.22008274564480418,0.4888058986931543,64.76831546853084,0.43385255045334975,65.76473218982953,0.38333333333333336,199,0.5841796499999998,0.001854573889289226,1.6807877823317642e-06,35.32,0.011254628677421146,-1.8750005086260422e-06,49.79866666666667,0.4615173043583761,1.4499999999999957,0.0008119446646985305
S065,14062.0,14091.984375,W,1.1237864583333328,257.0508594805183,-425.84,522.62,948.46,-22.33,0.0,1078.125,1078.125,0.15743991358257567,0.11110243021644485,0.49495720914932523,64.78675067468251,0.44000418542602304,65.76473218982953,0.41458333333333336,215,0.5878297,0.0016813828663732,5.801689941864855e-07,35.30800000000001,0.013999999999999955,-1.4097226046340106e-05,51.187999999999995,0.14476187343358027,0.5499999999999972,0.00023194450736341817
S065,14092.0,14121.984375,W,0.6895520833333336,252.27095626447178,-430.39,524.18,954.5699999999999,-17.65,0.0,1078.125,1078.125,0.2875905654456233,0.3154289820361048,0.4911323014219285,64.92901699729236,0.4458625707396724,66.73080248281148,0.008333333333333333,6,0.5894521583333334,0.0018521788250410712,1.0898646619641441e-06,35.30800000000001,0.009451631252505591,-6.250001695424417e-07,51.082,0.1523460972041404,0.4799999999999969,-0.0002382639535221235
S065,14122.0,14151.984375,W,0.7396093750000003,238.9358337425629,-404.27,495.7,899.97,-21.07,0.0,1078.125,1078.125,0.07198059875565235,0.3487079325484613,0.46837484987987976,64.70442176255573,0.4149450244375474,65.30696746902278,0.325,186,0.5914802249999999,0.0015448118572742114,1.0391597870984691e-06,35.28866666666667,0.01543444920371985,-1.3888892656491554e-05,51.24366666666666,0.13400207295245734,0.3400000000000034,-0.00019621533100459425
S065,14152.0,14181.984375,W,-1.2822343749999996,250.38593081784364,-449.7,499.62,949.3199999999999,-27.375,0.0,1078.125,1078.125,0.4442326698145417,0.32349410736518835,0.4148593616281976,64.67086990454037,0.3728303322973716,66.24952830020754,0.209375,153,0.5940630083333331,0.0019749430181477444,2.021506841771596e-06,35.275999999999996,0.010519822558704825,-7.569446497786986e-06,50.94666666666667,0.24705375033695712,0.9699999999999989,-0.0004025695536484253
S065,14182.0,14211.984375,W,-0.45035416666666706,238.34852076030293,-434.81,498.46,933.27,-17.665,0.0,1078.125,1078.125,0.42555111326373,0.25124473114984036,0.07198059875565237,64.77758516737127,0.20886969772316033,65.76473218982953,0.005208333333333333,5,0.5961228999999999,0.002166812049224999,1.7577183587560593e-06,35.27866666666667,0.011175369742825193,-2.2916672883211677e-06,50.00366666666667,0.11909333407971365,0.3299999999999983,0.0001488542070459549
S065,14212.0,14241.984375,W,1.5269375,251.38296974892265,-418.7,501.51,920.21,-21.145,0.0,1078.125,1078.125,0.3094837070518504,0.19497818610181897,0.05581428468591173,64.83695704538265,0.1522095984907135,65.76473218982953,0.003125,3,0.5978733,0.0020888083748076738,2.136116030847455e-06,35.26200000000001,0.015143755588801345,-1.0694447345499292e-05,50.08033333333333,0.11987447138106161,0.3499999999999943,0.0001844097722465749
S065,14242.0,14271.984375,N1,0.7045989583333333,247.94352736675407,-435.03,501.53,936.56,-20.634999999999998,0.0,1078.125,1078.125,0.23437268517375387,0.1428261375083551,0.03225804701500421,64.85806971026588,0.11439023104190472,65.76473218982953,0.0010416666666666667,1,0.6012887083333334,0.0020648512714633665,9.312409210180291e-07,35.24133333333334,0.015216949614019173,-9.027780226721299e-07,50.245,0.04047633053197115,0.14999999999999858,6.031251636081879e-05
S065,14272.0,14301.984375,W,-3.7388697916666653,259.149786810808,-458.7,508.13,966.8299999999999,-21.25,0.0,1078.125,1078.125,0.41339864235384227,0.1974198809010886,0.11987768650679835,64.7945070337739,0.21404808702142702,65.7723346096214,0.014583333333333334,13,0.603124575,0.0019381143441607623,1.0117270539624276e-06,35.248000000000005,0.013012814197297457,-7.569446497789404e-06,50.80433333333334,0.3372109461779405,1.0499999999999972,0.0006030904413765294
S065,14302.0,14331.984375,W,1.1878593749999997,246.90982857456245,-431.03,519.11,950.14,-22.909999999999997,0.0,1078.125,1078.125,0.2732186624299299,0.17399263633843817,0.03225804701500421,64.84733832544481,0.1323018214639744,65.76473218982953,0.0010416666666666667,1,0.6043306083333334,0.001795977367599758,5.461231950203939e-07,35.230000000000004,0.013662601021279173,-5.555557062597456e-06,51.46666666666667,0.13414751416092444,0.44999999999999574,-0.0001359722591070575
S065,14332.0,14361.984375,W,1.560552083333333,244.5354064249682,-458.57,505.14,963.71,-13.795,0.0,1078.125,1078.125,0.6880647932587615,0.21182234678433298,0.476528061141792,64.84143923689548,0.36692327262093066,65.76473218982953,0.2791666666666667,142,0.6016943250000001,0.003340581903307917,-1.3251368612025006e-06,35.224,0.01171893055416335,7.013890791527632e-06,50.54233333333334,0.3820792529771218,1.0799999999999983,-0.0006105209989477532
S065,14362.0,14391.984375,W,0.763500000000001,251.8477614341979,-424.03,520.76,944.79,-25.71,0.0,1078.125,1078.125,0.19538956812822256,0.0,0.43361244016274364,64.65295144067281,0.39401143384850223,65.76473218982953,0.25104166666666666,174,0.6022172916666667,0.002340122964703049,2.0431570212557134e-06,35.224,0.012806248474864593,9.79166932282657e-06,50.18333333333333,0.14702229611713866,0.4200000000000017,-0.00013888892656492146
S065,14392.0,14421.984375,W,-2.4072447916666677,251.76460570934458,-426.21,516.76,942.97,-23.695,0.0,1078.125,1078.125,0.33326659488146854,0.04559597630883185,0.3146988612370386,64.5651476925778,0.31297513577976155,65.76473218982953,0.21666666666666667,150,0.6061876833333333,0.0017530802414765791,1.5931080710470818e-07,35.22733333333334,0.012364824660660214,-1.2222225537712286e-05,50.61566666666666,0.222271355679394,0.7800000000000011,1.4479170594392479e-05
S065,14422.0,14451.984375,W,-0.07086458333333354,255.8404268813994,-428.88,510.66,939.54,-23.590000000000003,0.0,1078.125,1078.125,0.2810396589995006,0.0,0.2582808246366733,64.51721082749516,0.2628504781676324,65.76473218982953,0.153125,118,0.60857865,0.0018852298783348992,7.635735578270278e-07,35.209999999999994,0.014142135623730146,1.3194448023673308e-06,49.972,0.04614469994845912,0.19999999999999574,3.097223062397786e-05
S065,14452.0,14481.984375,W,3.4027083333333343,251.6567540535917,-498.14,551.1,1049.24,-12.03,0.0,1078.125,1078.125,10.638291879961928,16.118156924378447,14.239526944535998,65.18805469068919,6.24931868102826,127.33420593069248,0.06041666666666667,17,0.5621393166666667,0.08730213083405462,-0.00011246902139459131,35.20533333333333,0.013597385369580701,-1.597222655496526e-06,50.10166666666666,0.8218437942956206,3.5700000000000003,0.0007200349175441952
S065,14482.0,14511.984375,W,-0.6508958333333337,201.85410063781623,-739.4,698.1,1437.5,-5.6850000000000005,0.0,1078.125,1078.125,29.24086722332671,18.495581186799726,17.43364500274103,66.63289417305617,11.52307998998661,128.46011054019843,0.12291666666666666,44,0.29133945833333336,0.14835654869271842,-4.079898394069659e-05,35.13100000000001,0.056056519097544034,-9.572919263487179e-05,65.82,7.038816661911291,23.520000000000003,0.012690211775773595
S065,14512.0,14541.984375,W,-1.194630208333333,168.03442698121393,-598.69,610.64,1209.33,-8.285,59.94902529383239,1125.0,1131.1197916666667,11.894431287780103,5.2522604880541675,5.940568560138696,65.57915579391474,4.862842998095479,158.4455742518547,0.03229166666666667,10,0.035734,0.008153173820666404,5.26704092530407e-06,34.95333333333333,0.04728166193732643,-8.097224418735053e-05,87.02533333333334,3.802758414040466,11.920000000000002,0.005619793191133138
S065,14542.0,14571.984375,W,0.6002291666666661,141.88391075082293,-256.79,285.38,542.1700000000001,-10.23,40.22974524665523,1093.75,1094.7021484375,0.8126575701910914,0.5526677331488503,0.18725678670389134,65.032312818923,0.28751421137934374,66.89544080129826,0.036458333333333336,23,0.04250085000000001,0.003080054746943091,7.027957635622187e-07,34.81033333333333,0.029719054867579784,-4.9548624552035794e-05,75.49666666666667,6.513467245296897,21.650000000000006,-0.01174104485162892
S065,14572.0,14601.984375,W,-1.0263906249999988,152.88631940085796,-267.36,305.39,572.75,-23.09,37.25619712444289,1187.5,1157.6822916666667,0.6197689071451462,0.49964831381682845,0.11162856937182343,64.92488487421643,0.2498981187306445,66.07571414672717,0.23958333333333334,81,0.04585218333333333,0.0017070673145452959,1.5824904466391183e-06,34.73933333333333,0.01691810338726703,-2.277778395664861e-05,55.92233333333333,3.5738799488635435,10.82,-0.005826216858240249
S065,14602.0,14631.984375,W,-0.7512135416666664,157.33011560832657,-279.07,314.57,593.64,-22.96,26.695634634994114,1187.5,1177.8889973958333,0.8217713548927233,0.55900825966617,0.16827350421923892,64.87613235520396,0.2303814881013703,65.79513659838392,0.14895833333333333,79,0.049705383333333325,0.0016142115938507643,1.0815857968711479e-06,34.69333333333332,0.021343747458109984,-2.5625006951228838e-05,52.26499999999999,0.3678110928180388,1.3500000000000014,-0.0006469793421710452
