participant_id,window_start_time,window_end_time,sleep_stage,BVP_mean,BVP_std,BVP_min,BVP_max,BVP_range,BVP_median,SDNN,median_nni,IBI_mean,x_std,y_std,z_std,mag_mean,mag_std,mag_max,movement_density,burst_count,EDA_mean,EDA_std,EDA_trend,TEMP_mean,TEMP_std,TEMP_slope,HR_mean,HR_std,HR_range,HR_trend
S068,5971.0,6000.984375,W,0.01224999999999996,34.25949994070988,-245.99,186.25,432.24,0.22,5.643674909435488,843.75,845.0113932291666,27.041960707184103,40.60678425749046,28.48811047000207,65.71698254479784,13.296814977281926,139.05754204644924,0.103125,41,0.12758208333333335,0.017710369166387307,-2.61200261827328e-05,32.85933333333334,0.018785337071472005,-1.5486115311988057e-05,75.67699999999999,2.579758580436031,7.819999999999993,0.004006216364533517
S068,6001.0,6030.984375,W,0.13561458333333334,7.035964540709444,-32.19,24.74,56.92999999999999,1.27,25.54037682251544,843.75,835.888671875,0.41988212424904314,0.21489661597046048,0.5728210147424373,63.05445919464483,0.24951754287846498,63.631753079732135,0.003125,0,0.12178604999999999,0.0034734985529722073,6.060494265542069e-06,32.857666666666674,0.018199511592956265,3.7152787856106153e-06,85.84500000000001,1.5316804497022207,5.1299999999999955,0.002014340824202697
S068,6031.0,6060.984375,N1,-0.12011458333333334,4.49572410132161,-11.42,12.99,24.41,0.065,25.939251739708535,781.25,780.3385416666666,0.5009322905565405,0.4947642536265799,0.9920495584338963,62.986954388368,0.3159539169690823,63.914004725099176,0.0125,8,0.12803021666666667,0.0010947468671138284,1.148763766483222e-06,32.869,0.015132745950420514,1.4826392910805132e-05,85.344,2.1043741745865128,7.019999999999996,-0.0028130563186459204
S068,6061.0,6090.984375,W,-0.009380208333333358,9.978241749824546,-48.75,72.79,121.54,0.23,65.58083758842392,843.75,841.259765625,6.623853330404315,5.405237943164225,18.36330052595658,63.15251507358234,3.8364271417933566,95.61380653441218,0.051041666666666666,17,0.12844648333333333,0.003712216545819431,-3.0810885094098574e-06,32.912,0.026507860469428806,3.8819454974896844e-05,75.034,1.9327520965366118,6.3700000000000045,-0.0026486118295930517
S068,6091.0,6120.984375,W,0.03109895833333325,13.391229129335885,-71.56,77.46,149.01999999999998,0.825,14.523116174492277,890.625,882.4137369791666,11.062856583628415,6.111747905190235,13.067681347122393,63.785245708891324,5.04167348437288,104.65658125507444,0.06979166666666667,18,0.131296625,0.0032824341096776032,1.8179373421053992e-06,32.98533333333334,0.02513076909996081,3.6527787686574154e-05,74.07966666666668,0.5280055765698767,1.6499999999999915,-0.000863923845465451
S068,6121.0,6150.984375,N1,0.04986458333333329,6.7527842932252025,-27.84,49.4,77.24,0.65,54.4628792188313,843.75,832.8531901041666,2.9111845801532787,2.31696055352637,2.2652109295947596,62.99643966531955,2.2798131123161105,98.69650449737316,0.011458333333333333,3,0.12433739999999999,0.0012234872659737843,7.667098434000234e-07,33.06033333333333,0.02536182608217064,3.753473240417144e-05,73.262,0.35190339583471003,1.0300000000000011,0.0003220834207040557
S068,6151.0,6180.984375,N1,0.006015624999999995,5.327566821668142,-34.8,74.53,109.33,0.475,53.69253687236527,843.75,826.4892578125,1.696232229395983,0.9585229658394558,1.7657021246675657,62.943088676174064,0.42190587807548163,67.3349834781297,0.109375,48,0.12182876666666666,0.002451764139462759,-3.2661462853044393e-06,33.13066666666667,0.03414999593297455,5.7083348818181264e-05,73.26333333333334,0.3654251709386705,1.0,0.0005109723608323485
S068,6181.0,6210.984375,N1,-0.017906249999999988,3.4411372108230354,-13.37,17.02,30.39,0.425,56.602438261834514,828.125,838.2486979166666,0.6046684338797218,0.4703675793698182,0.6176644166513255,62.81818537225818,0.4264229550677634,63.96092557178953,0.25625,126,0.120270225,0.0009470716574657938,-2.9189461043148112e-08,33.224000000000004,0.027030846576951203,3.9722232997568054e-05,72.72600000000001,0.7015915240841126,2.0600000000000023,-0.0012495836723046003
S068,6211.0,6240.984375,N1,0.050614583333333324,3.497906432990167,-16.58,17.84,34.42,0.57,67.50247619152907,750.0,790.2750651041666,0.5540100029181182,0.5271193581233129,0.729939322773171,63.10334580868619,0.48200734714274307,65.93178292750773,0.075,53,0.12104949999999999,0.0013333070726580594,1.3738506330975033e-06,33.262,0.014236104336042575,1.2222225537713249e-05,71.55633333333334,0.5815753509983802,1.8299999999999983,-0.0007832293791312343
S068,6241.0,6270.984375,N2,-0.04670833333333335,3.3099734229694184,-10.32,9.33,19.65,0.475,59.411600889428016,796.875,811.5559895833334,0.5472112061778951,0.4928294424798503,0.5271275920153382,63.073491881322994,0.4248002236513142,63.796551630946325,0.29375,159,0.122640075,0.0011154736524790693,1.3719046690279562e-06,33.26266666666666,0.015902480589169606,1.5486115311989487e-05,72.36233333333332,0.518219280056447,2.1199999999999903,0.0008504516195886557
S068,6271.0,6300.984375,N2,0.016072916666666676,3.1395137287510777,-8.27,9.29,17.56,0.56,83.41340311153087,765.625,791.6748046875,0.4509237721210635,0.3066111815747538,0.389978631893253,62.826227335232495,0.2652680814142462,65.11528238439882,0.10520833333333333,49,0.123921075,0.0009571255243566563,2.688210364640405e-07,33.29600000000001,0.015620499351813264,1.8680560622982242e-05,72.68433333333334,0.4202513797981189,1.3700000000000045,-0.0001739931027542041
S068,6301.0,6330.984375,N2,-0.009385416666666717,16.9217521975352,-105.21,143.35,248.56,0.26,78.52963248288594,812.5,834.9609375,8.837450826419063,3.6992326003641924,8.41686365281035,62.95739253897373,3.2281405422071154,104.35516278555652,0.029166666666666667,8,0.12528740833333332,0.0014156818409976732,1.1042882769879242e-06,33.32933333333333,0.014126413400278022,1.3750003729927351e-05,71.68966666666665,0.4102965052522655,1.3800000000000097,-0.0004182987245819013
S068,6331.0,6360.984375,N1,-0.034635416666666655,3.831902809037871,-11.42,9.0,20.42,0.43,51.110393290500824,796.875,795.6787109375,0.5816045812138079,1.0351625065324552,3.1814060415234127,62.64919225338824,0.35584640600408873,63.4428877022476,0.21458333333333332,108,0.13082680000000002,0.0015856597711993586,2.4291191485240756e-06,33.35933333333334,0.0198214249964236,2.7222229606722844e-05,77.96233333333333,2.448414021815391,7.320000000000007,0.003841007986384542
S068,6361.0,6390.984375,N2,-0.004005208333333347,9.212125040423059,-47.52,51.9,99.42,0.425,59.95973081199471,781.25,798.6735026041666,3.343634960378284,4.065572422582568,6.774010792892364,62.66869228944287,3.699325172396025,113.17685275708986,0.022916666666666665,8,0.1339866,0.0012197559755951228,7.25010613338385e-07,33.42733333333333,0.027194770739162533,4.2500011528867606e-05,81.76933333333334,1.0001997578261832,3.25,0.0017656254789565641
S068,6391.0,6420.984375,N2,0.040875000000000036,6.854478072839804,-29.28,63.14,92.42,0.835,47.46106029576593,859.375,858.5611979166666,10.640514816283822,3.6453160347294387,3.9442974835690183,63.02110805756788,3.36748262005211,105.3612832116238,0.026041666666666668,7,0.12756085833333333,0.006475824551483559,-9.805802356174685e-06,33.53966666666667,0.0413508027599087,7.045140800005599e-05,76.91366666666666,2.4001881639201175,7.780000000000001,-0.0037562162967166614
S068,6421.0,6450.984375,N1,-0.00482812500000002,3.939975329295728,-14.32,16.31,30.63,0.63,84.74675567666192,843.75,844.1650390625,0.43413387592103686,0.2432330700971578,0.6010371533626039,63.05597697323866,0.2372086642525769,63.88270501473775,0.053125,32,0.12144447500000001,0.0010234090821245431,-4.789851559747042e-07,33.648999999999994,0.024946609656088872,3.975695522920649e-05,73.612,0.7535622071202878,3.1499999999999915,-0.0009747224866326178
S068,6451.0,6480.984375,N2,-0.00505208333333332,4.1605079939979275,-16.54,13.31,29.85,0.77,74.20669190013825,796.875,793.84765625,0.4448587478689787,0.29367611363919643,0.5486686854458607,63.1741974878474,0.2775279561718269,64.35060217278468,0.04895833333333333,30,0.120334275,0.000982506030197783,4.3061404910320486e-07,33.72233333333333,0.020113566455393566,2.7465285228212772e-05,72.003,0.6322296523679779,2.1099999999999994,0.0005723959886056844
S068,6481.0,6510.984375,W,0.046624999999999986,13.227905551372888,-72.22,72.34,144.56,0.365,29.45428901618531,796.875,800.244140625,19.70665062848214,9.908172077377873,20.79350098371417,64.13388187534471,7.266388644482602,128.7245120402482,0.052083333333333336,14,0.12117760000000001,0.001851920216964004,1.5767868860641508e-06,33.75533333333333,0.017838784213680802,1.6250004408096797e-05,71.91733333333335,0.4791724347478923,1.5300000000000011,-0.00025506951363647853
S068,6511.0,6540.984375,N1,-0.04754687500000001,3.6390795643854412,-8.01,7.14,15.149999999999999,0.47,59.75091568969187,843.75,825.9847005208334,0.46474562748227005,0.30446439481215753,0.5906938892805083,64.07031825554314,0.2469520197977969,65.22269543648132,0.19583333333333333,82,0.12400647499999999,0.0009542637996775339,9.01537353932661e-07,33.803,0.020840665376453446,2.9340285736838264e-05,71.86766666666666,0.6389923491108661,1.9699999999999989,-0.0006392710067466924
S068,6541.0,6570.984375,N1,0.0006822916666666679,3.49816926868823,-10.59,7.86,18.45,0.51,74.37606068129962,796.875,817.4560546875,0.48183023282468374,0.4816950953980698,0.6984536180715382,64.30483026846494,0.37395963763912543,65.52098900352466,0.040625,31,0.12535151666666666,0.0009963040364545164,7.041746701862736e-07,33.857,0.026095976701399497,4.302084500348418e-05,72.50166666666668,0.1386622595453509,0.5,-7.142363048600987e-05
S068,6571.0,6600.984375,N2,-0.0014791666666666703,3.2737066147665055,-7.87,6.63,14.5,0.31,75.29132168874995,812.5,815.4378255208334,0.4604956097480433,0.46231227421396554,0.7435479125543215,64.12483739673411,0.3722394064925662,66.11353870426238,0.18541666666666667,98,0.12605604166666665,0.000882726811229779,4.1554329848722423e-07,33.92533333333333,0.01978776277287604,3.062500830756822e-05,73.16166666666666,0.17103768265762165,0.8200000000000074,0.00014010420467236572
S068,6601.0,6630.984375,N2,-0.02496354166666666,3.528758575193849,-10.49,7.36,17.85,0.405,80.98355114419415,828.125,820.6949869791666,0.41879534373074817,0.3232256586177664,0.7100438904665604,64.1327684764906,0.24892945625228635,65.22269543648132,0.09166666666666666,49,0.1268777583333333,0.0009329346797055126,4.1349946112724224e-07,33.97433333333334,0.0168687745718401,2.447917330706787e-05,73.77366666666667,0.07726505606604182,0.23999999999999488,7.489585365013466e-05
S068,6631.0,6660.984375,N2,0.034260416666666654,3.557937059544921,-8.76,7.64,16.4,0.43,75.73615586299925,812.5,818.0989583333334,0.5981416533731788,0.4037530099647006,0.7580292144307866,64.21365699734048,0.33386129041996637,66.76076692189807,0.16770833333333332,82,0.12744334166666665,0.0007390397654595833,1.1642559581857511e-07,34.019999999999996,0.02097617696340213,2.7013896216876316e-05,75.60666666666665,0.8882317015033615,2.319999999999993,0.001321597580728512
S068,6661.0,6690.984375,N1,0.010703125000000013,4.480733347180113,-21.56,23.02,44.58,0.455,58.106329846524176,843.75,846.3785807291666,13.63010798746657,1.886489968444483,6.480242073131906,64.29684100909104,2.0813123868532952,94.26027795418386,0.017708333333333333,3,0.12954580833333335,0.0012368083002620943,-1.3846640040863846e-07,34.076666666666675,0.01813529401164879,2.6527784973902792e-05,75.62766666666666,0.30493369042392837,1.1099999999999994,-0.0004965626347012379
S068,6691.0,6720.984375,N2,-0.01890104166666665,6.087839611556844,-14.2,14.83,29.03,0.735,82.20888271428568,796.875,817.8792317708334,0.5714934975206046,0.5143502761710372,0.529460835229261,64.094815932682,0.4346786808823477,65.49045732013177,0.35,128,0.12797689999999998,0.001005512749794844,-8.027667108199586e-07,34.14399999999999,0.019425069712443708,2.9930563674738792e-05,73.07300000000001,0.749529407917617,2.8999999999999915,-0.0005026043030068098
S068,6721.0,6750.984375,N2,0.016557291666666647,6.130621958307003,-15.46,15.07,30.53,0.925,74.29193424341408,781.25,802.9215494791666,0.5566585188400716,0.5248749437696776,0.7552011493911186,63.94450180254758,0.44213220947526627,67.29784543356496,0.20833333333333334,90,0.12748600833333332,0.0009197968751834405,-2.1592084850283428e-07,34.17633333333333,0.01834545054109036,1.649306002958529e-05,73.19466666666668,0.9391405054031543,2.6700000000000017,0.0015000698513644368
S068,6751.0,6780.984375,N2,-0.006098958333333352,6.415087241271464,-14.2,15.01,29.21,1.045,89.89592285859037,812.5,814.9251302083334,0.3783186487605389,0.5036972677114697,0.4999609359740019,64.01531172750485,0.4211465663872604,65.43699259593154,0.325,132,0.12698446666666666,0.0009486537824142657,-1.2233814082523431e-07,34.217,0.022678918257565003,2.343750635782998e-05,74.20666666666666,0.23687314936245685,0.7900000000000063,-0.0003823612148332287
S068,6781.0,6810.984375,N2,-0.02434374999999999,7.066985138256337,-15.93,14.73,30.66,1.01,72.2373448845363,781.25,800.4964192708334,0.450650571396509,0.47651439875645124,0.5539776855087818,63.980463967302036,0.3942573551610233,65.43699259593154,0.2520833333333333,111,0.12648294999999998,0.0009278712181655402,-3.888086992211105e-07,34.244,0.02009975124224318,2.6180562657489766e-05,74.56166666666668,0.09059372065558674,0.4200000000000017,2.9618063589970752e-05
S068,6811.0,6840.984375,N2,-0.029166666666666608,7.841710852691665,-18.99,16.35,35.34,1.0150000000000001,74.41806198412495,812.5,816.357421875,0.5365786677335083,0.4541284387581215,0.6099854492230851,63.973181245859955,0.3788662266350934,65.43699259593154,0.215625,95,0.12614144999999996,0.0007571083789656563,2.253472833515862e-08,34.27666666666667,0.014907119849997857,1.6388893334660165e-05,74.94533333333332,0.08864661427388078,0.3500000000000085,9.645835949933727e-05
S068,6841.0,6870.984375,N2,0.04064583333333333,7.480384954136115,-17.53,15.55,33.08,1.45,80.056883519739,828.125,816.8050130208334,0.5382494371545801,0.3933571121873015,0.6408781681325156,63.98115278686251,0.34096147996924286,65.36818798161687,0.14166666666666666,70,0.12599201666666665,0.0008066871655453298,-2.5045926933031445e-07,34.311666666666675,0.0141617638574985,1.0590280650574956e-05,74.50399999999999,0.19215618647339966,0.6200000000000045,-0.0003163195302516082
S068,6871.0,6900.984375,N2,-0.030833333333333327,7.632083590380517,-18.31,18.75,37.06,0.975,80.59505644244724,796.875,817.1468098958334,0.5960581962056128,0.5108618381796916,0.8177474778316348,64.00490648136295,0.4342959574402934,67.23838189605696,0.128125,61,0.12521273333333333,0.0010491294385770007,-3.9917154925443546e-07,34.34333333333334,0.01776388345929775,1.1111114125193727e-05,74.16600000000001,0.04461688768467343,0.23000000000000398,4.263890045543125e-05
S068,6901.0,6930.984375,N2,0.01684895833333333,7.834441283664484,-18.02,17.4,35.42,1.165,86.89173912988475,796.875,817.6676432291666,0.655157821317378,0.5760623866074653,0.9240933760764294,63.98992941978631,0.5096726244372777,69.02897942168927,0.06041666666666667,38,0.12476440000000001,0.0008168991002565766,-1.345495156655592e-07,34.387666666666654,0.016669999666733038,1.975694980386022e-05,73.70233333333333,0.3680550985322096,1.1499999999999915,-0.0006456598973686759
S068,6931.0,6960.984375,N2,0.012682291666666649,7.392002628340627,-17.16,16.79,33.95,1.16,63.448824046662125,812.5,804.5328776041666,0.4086188946214635,0.42050188061080324,0.5540560274892984,63.95989043371875,0.36245556972742826,65.43699259593154,0.19895833333333332,84,0.12466831666666667,0.0008930388101246745,1.9691845619532874e-09,34.42133333333332,0.017650936393166467,1.5208337458859971e-05,74.154,0.1953560851368588,0.7800000000000011,0.00017750004814996956
S068,6961.0,6990.984375,N2,-0.019697916666666686,7.784288149347954,-17.68,20.03,37.71,1.2149999999999999,70.00478544604879,843.75,834.7249348958334,0.23924568598804222,0.26836818808308854,0.48988798145596507,64.00546536158532,0.2528745016164086,64.95382975621992,0.0625,31,0.124390775,0.0009470716574657939,-1.692988740502594e-07,34.441333333333326,0.015216949614018944,1.6041671018249755e-05,74.62033333333332,0.2414882099721532,0.9699999999999989,6.288196150226862e-05
S068,6991.0,7020.984375,N2,0.011411458333333324,7.989471909532071,-17.46,17.51,34.97,1.22,73.15749588411119,859.375,843.7174479166666,0.111725730648266,0.19741988090108853,0.36739983517809155,64.04416853835703,0.19283299471979753,64.95382975621992,0.04583333333333333,24,0.1240385,0.0009403699537947845,-1.4177738220957662e-07,34.464666666666666,0.01257864150940791,-4.1922495374977526e-19,72.65066666666667,0.6495071635906382,2.6500000000000057,-0.0009530558140884908
S068,7021.0,7050.984375,N2,0.030182291666666684,7.5374613541089825,-19.71,18.39,38.1,0.795,107.06949285575192,812.5,828.8736979166666,0.9386329959263453,0.6647751486509472,0.8745776510455394,64.00539053296615,0.5210000535706766,66.91786009728644,0.11770833333333333,74,0.12377161666666667,0.0009363847961115635,1.0366626076016235e-07,34.48533333333333,0.009910712498213042,5.486112599314541e-06,72.36066666666667,0.8612391589383805,2.6499999999999915,0.0008193752222697559
S068,7051.0,7080.984375,N2,0.03362499999999999,8.126644723595444,-16.86,16.72,33.58,1.3050000000000002,82.86786378017266,812.5,823.0061848958334,0.5285224096478787,0.33254953421758593,0.5507412933694206,64.07748990903058,0.24425797445570235,65.00769185258002,0.09166666666666666,40,0.12356878333333333,0.0010318086804517387,8.354168932880298e-09,34.505333333333326,0.01783878421367934,2.1527783617562273e-05,73.224,0.5050782117652675,1.7600000000000051,0.0006114584992020662
S068,7081.0,7110.984375,N2,-0.0649791666666667,7.957373107401669,-19.15,16.58,35.73,1.25,104.4557299051772,828.125,843.0013020833334,0.5395752895153331,0.41415781135737784,0.6485527424367444,63.97522947249656,0.36545260715349775,65.88626564011653,0.15104166666666666,67,0.12345137499999999,0.0008279149016505269,-5.587696828259721e-08,34.52733333333333,0.019821424996424364,1.777778260030947e-05,73.068,0.30243897456071184,0.7999999999999972,-0.0005067362485721203
S068,7111.0,7140.984375,N1,-0.005645833333333327,8.244354874168907,-20.74,18.16,38.9,1.01,88.35097741005721,781.25,805.3955078125,0.5917170973226048,0.4703341287939174,0.6691490242589215,64.002180826805,0.3819023604971849,65.43699259593154,0.18020833333333333,63,0.123237875,0.0009628234570132776,-3.1941610227216194e-07,34.54266666666667,0.013148721948876209,9.791669322826225e-06,73.06466666666667,0.7586862914860717,2.1299999999999955,0.00108312529381654
S068,7141.0,7170.984375,W,0.06172395833333333,14.980946023089386,-46.13,73.13,119.25999999999999,0.51,40.95334041816467,734.375,757.6741536458334,12.717945647511455,16.07111744628301,16.584185358137297,64.29581363687565,6.793870922050863,115.15641536623133,0.09375,36,0.11914934166666666,0.0052504799677360195,-1.159218413416452e-06,34.564,0.0147422295916652,-1.1805558758027576e-06,74.00333333333333,1.3417186325339934,4.579999999999998,0.0016950004597983009
S068,7171.0,7200.984375,W,-0.005624999999999991,7.796614090490928,-45.94,40.8,86.74,0.31,58.89245872153853,843.75,839.8111979166666,15.946778855285322,16.853736474732308,13.265226445066398,63.660432557307495,4.247836894605259,110.64357188738983,0.051041666666666666,17,0.1241558,0.003885910550951994,-4.54044133584021e-06,34.59133333333334,0.021868292622476193,2.9861119211458495e-05,78.47599999999998,0.38575121516334765,1.2299999999999898,-0.00012812503475614274
S068,7201.0,7230.984375,W,-0.07329166666666677,14.405012535367584,-89.97,48.62,138.59,0.655,54.50201580177138,890.625,840.4378255208334,31.566573564821127,19.090496745035793,14.666017830108332,63.99588506865892,5.412045449334776,96.54532614269839,0.07916666666666666,33,0.1179858,0.004647519231805288,-3.7976117072514422e-06,34.620000000000005,0.011254628677423884,9.930558249392772e-06,81.893,1.3366953031013964,4.480000000000004,0.0012190628306919572
S068,7231.0,7260.984375,N1,0.0633177083333331,63.28441171758436,-627.69,346.81,974.5,0.555,22.4824973306082,781.25,785.3759765625,10.103871935134432,10.26366890081493,15.46224891447087,63.573213260086206,6.589266331512123,110.33585092797354,0.07916666666666666,24,0.11755881666666665,0.005143729909613797,6.466869809806267e-06,34.63033333333333,0.014255603186894925,-6.597224011827275e-07,78.50533333333333,0.8079139118055148,3.1500000000000057,-0.0013947226005649417
S068,7261.0,7290.984375,N1,-0.04966145833333334,4.125507435957369,-13.85,11.29,25.14,0.56,36.3376536571332,765.625,770.7275390625,0.1634985346519452,0.10642856726723121,0.8054070744384827,63.203371537205776,0.11846798411123254,63.29296959378664,0.0,0,0.12381432499999999,0.0011276660939192077,1.3441051823202004e-06,34.64199999999999,0.011661903789688281,-4.791667966488837e-06,75.269,1.1326969291621372,3.3499999999999943,-0.0017055907404488805
S068,7291.0,7320.984375,N1,0.01518229166666667,4.296122496907696,-23.58,12.3,35.879999999999995,0.635,91.38259472923902,796.875,779.6630859375,0.3763632627602694,0.4922302119915256,0.5307708214762333,62.99538724884527,0.47864604322030957,64.389440128021,0.052083333333333336,35,0.12524476666666665,0.0010256104908243169,9.437858462960768e-07,34.638999999999996,0.01164760347310237,-9.965280481031701e-06,76.29433333333333,0.6185719216244953,2.0999999999999943,0.0008239932790780358
S068,7321.0,7350.984375,N2,0.015598958333333338,3.9042140234942186,-11.1,7.46,18.56,0.65,54.370140331095705,781.25,798.5921223958334,0.49968631653323825,0.28103965899950056,0.5879790821463521,62.678926079641556,0.2683601488611123,63.647466563878254,0.08645833333333333,53,0.12680304166666664,0.0010257005280606484,9.801580349821074e-07,34.632,0.015790292376435155,-7.291668644659049e-06,75.528,0.5769078493716896,1.6800000000000068,-0.0009619447053886485
S068,7351.0,7380.984375,N2,-0.030286458333333342,4.072570360966764,-9.48,9.0,18.48,0.595,59.91987989614232,828.125,831.9986979166666,0.4663957081676698,0.11625205344661899,0.4555026222634606,62.82878965958276,0.12691169596710494,63.788713735268246,0.15833333333333333,33,0.12826500833333332,0.0010706181897688243,7.70884974740928e-07,34.61133333333334,0.01454494948618051,-1.3055559097102661e-05,74.28466666666667,0.47591829364106486,1.2999999999999972,-0.0007491668698911875
S068,7381.0,7410.984375,N2,0.039619791666666654,3.765881386323564,-10.25,12.19,22.439999999999998,0.475,77.90975759340532,843.75,836.6617838541666,0.4482302681255349,0.25181416414469004,0.7410460886851475,63.00252089512323,0.26822414674075895,64.1404708432983,0.026041666666666668,12,0.129364325,0.0009132585720238207,6.530099427652768e-07,34.591333333333345,0.012578641509408312,-7.500002034505576e-06,73.74966666666666,0.4434597564103819,1.5700000000000074,-0.00072107658449343
S068,7411.0,7440.984375,N2,-0.0007187499999999829,3.91383322652679,-9.79,9.07,18.86,0.445,70.74493380404063,812.5,822.3388671875,0.39095680352466333,0.4366012594143794,0.377754639558978,62.919403482247,0.4278322547524053,64.1404708432983,0.046875,29,0.13098692500000003,0.0011154736524790745,6.546779119677511e-07,34.57933333333334,0.01339983416149553,-1.8750005086266442e-05,72.60866666666666,0.6281546164936008,1.730000000000004,0.0009304863635216917
S068,7441.0,7470.984375,N2,-0.031536458333333336,3.6302056564395615,-8.71,8.66,17.37,0.605,46.24130210194247,843.75,843.3837890625,0.2879223950226094,0.42809331796804406,0.384936356121228,62.59094710836242,0.40492601568517933,63.56886030125127,0.24166666666666667,134,0.13196902500000002,0.001174783628748292,3.3387183536020055e-07,34.56066666666667,0.016110727964794833,-1.986111649878616e-05,72.03133333333332,0.3173088225828086,1.1799999999999926,-5.611112633222945e-05
S068,7471.0,7500.984375,N2,0.008859374999999984,3.700555687581431,-11.43,10.67,22.1,0.6,73.314894467726,812.5,830.6640625,0.46088188223773774,0.2763853991962833,0.5396396367021237,62.59502614038677,0.2684725019357968,63.788713735268246,0.08333333333333333,48,0.1326202,0.0009047967782878117,3.474935838470022e-07,34.553333333333335,0.011642832797715717,-6.458335085270031e-06,72.02233333333334,0.14559494801980297,0.4300000000000068,-0.0002153125584072709
S068,7501.0,7530.984375,N2,-0.0054843750000000005,3.669138845771242,-9.77,9.19,18.96,0.48,69.44020915361774,781.25,776.7578125,0.5995866269888688,0.19878100736460938,0.7137020805085427,62.77631810178853,0.2490192423428131,65.00769185258002,0.13958333333333334,48,0.13342082500000002,0.0009207148822382561,4.6425142801959544e-08,34.54833333333333,0.014624940645653164,-6.284723927062976e-06,72.24700000000001,0.5743120522271261,1.9699999999999989,0.0007930904929173435
S068,7531.0,7560.984375,N2,0.010817708333333339,3.5600309730773056,-10.42,8.69,19.11,0.47,78.31776890438736,875.0,869.4661458333334,0.18410997902069298,0.4304188851185164,1.1147663401159704,62.73015388618778,0.3589360414716127,63.72597586541927,0.23958333333333334,66,0.13385850000000002,0.000978379910873073,-4.447917873241354e-09,34.543666666666674,0.012775845264489957,3.229167542634917e-06,73.16799999999999,0.5587808157050487,1.5499999999999972,-0.0008298613362254045
S068,7561.0,7590.984375,W,-0.059854166666666736,6.400920147036099,-25.68,42.2,67.88,0.17,50.301972440248605,828.125,805.4850260416666,8.632359983740766,3.8956036864133425,12.998689670875377,63.35500650773391,2.3603549319950914,82.81304245105356,0.04479166666666667,15,0.129620625,0.0019446476118759892,-6.480620247564124e-07,34.52433333333333,0.01961008810677613,-1.822917161164567e-05,73.36966666666666,0.2958883047517901,0.8499999999999943,0.0004872570766213843
S068,7591.0,7620.984375,W,0.09041145833333335,6.042533054615316,-26.17,27.91,54.08,0.675,47.38268268061101,765.625,798.193359375,21.040426943677314,4.4659183919249275,5.125605909304772,63.953424281810655,3.7301058024374587,102.31813133555558,0.0375,12,0.12527665,0.0025595613642770895,-1.4730203648601205e-06,34.50233333333333,0.01764149149653218,-1.6840282345996536e-05,74.94099999999999,0.8010507682621204,2.280000000000001,0.001156423924811176
S068,7621.0,7650.984375,W,-0.05496354166666665,12.388977405117187,-93.68,80.64,174.32,1.03,24.773776868457055,812.5,800.5696614583334,14.632971325960728,6.658836466049998,8.61537707951441,64.04831852800645,4.2241096184115845,103.79788051786029,0.06145833333333333,16,0.12682419166666664,0.003609529344424821,6.200462836497075e-06,34.47500000000001,0.02171788817234895,-3.107639731890112e-05,74.48966666666668,0.8906083438988335,2.730000000000004,-0.0015652434801550245
S068,7651.0,7680.984375,W,0.0038697916666666702,3.9946236099448873,-8.39,6.71,15.100000000000001,0.66,29.96517844912403,812.5,811.5885416666666,0.6153411641227076,0.07198059875565237,0.2933711357033764,63.260415820594986,0.09127908897038992,63.39558344238185,0.09583333333333334,15,0.13387985000000002,0.001363561504846778,1.7541476112596646e-06,34.458,0.01599999999999942,-8.472224520460547e-06,72.04299999999999,0.4229747825422546,1.2800000000000011,-0.00046343762571550423
S068,7681.0,7710.984375,W,0.09365625000000001,9.57773408889959,-36.15,85.16,121.31,0.83,42.08223294245262,765.625,783.5042317708334,9.618222496545583,8.171692490526196,7.475074248864801,63.39077219107118,4.655932704952875,94.91575211733824,0.053125,9,0.12755029166666665,0.0040628219736939695,-4.8834776702142125e-06,34.467999999999996,0.015577761927396684,1.3402781413514623e-05,73.20166666666665,0.5163143960374875,1.7700000000000102,0.0008765627377828607
S068,7711.0,7740.984375,N1,-0.038333333333333316,5.834991764252019,-17.24,16.09,33.33,1.06,30.700341406672777,796.875,796.5576171875,0.4713630869321676,0.27638539919628335,0.49364010732066294,63.25978394123026,0.2771624833930251,63.419239982831705,0.0,0,0.12599202499999998,0.0007720763397326743,-7.505861411095243e-09,34.49333333333333,0.016193277068654678,1.486111514244628e-05,74.24900000000001,0.160423398127165,0.480000000000004,0.00026586812767690117
S068,7741.0,7770.984375,N1,-0.028125,5.559628090547814,-16.51,14.6,31.11,0.915,76.5204450363941,812.5,823.6083984375,0.11178398687746927,0.37727176461405115,0.3151278400198173,63.21655580478969,0.37275619365759854,63.51377803280167,0.0,0,0.1262161333333333,0.0009046229687309278,-7.609116647438245e-08,34.52266666666666,0.016719914938645643,8.958335763436961e-06,75.01166666666668,0.4621116988588608,1.5600000000000023,6.770835170040425e-06
S068,7771.0,7800.984375,N1,0.03984895833333334,5.634973780634335,-14.76,13.3,28.060000000000002,1.105,72.75816447677829,812.5,830.5501302083334,0.2797704136877236,0.44055357971218684,0.1796716478514812,63.133752144076034,0.43680492637834845,63.51377803280167,0.0,0,0.12612010833333331,0.0008733981890279057,1.648618068744053e-07,34.531,0.019209372712297404,1.9548616414010607e-05,74.289,0.5529276625382378,1.8200000000000074,-0.0006348265610966134
S068,7801.0,7830.984375,N2,-0.03450520833333335,5.886320101601215,-14.62,11.51,26.13,1.185,65.54489039782594,796.875,826.8473307291666,0.4364558472482895,0.4675911601554883,0.2614064523559687,63.07964512119454,0.4621468570613525,63.51377803280167,0.0,0,0.12613077499999997,0.0008581772977508801,-1.356486913109521e-07,34.552,0.013012814197295854,8.958335763437208e-06,72.66166666666666,0.25094598799122053,0.6800000000000068,-0.0003898959390993782
S068,7831.0,7860.984375,N2,0.01865624999999997,6.690713065087752,-23.07,20.55,43.620000000000005,1.0950000000000002,72.37709589653807,828.125,849.21875,0.7325635163967392,0.2130482103434703,0.8100115471999286,62.82574252920026,0.16780640026987248,64.31174076325411,0.04375,15,0.12610941666666664,0.0008243172991768563,-2.997787271535183e-08,34.577333333333335,0.016719914938647624,1.4652781752600225e-05,72.37366666666667,0.30863660760764466,0.8999999999999915,-0.0005225348639688761
S068,7861.0,7890.984375,N2,-0.14682812499999998,8.493121333837891,-48.64,27.53,76.17,1.21,70.73390143328425,812.5,836.2060546875,6.07779963782124,5.280647052202084,15.537950537346992,63.09993981177643,3.6014597619378987,100.21476937058729,0.05520833333333333,16,0.12568241666666666,0.001404978200206524,-8.006816408099092e-07,34.59866666666668,0.011175369742825193,6.45833508526823e-06,71.15466666666666,0.3694476357422738,1.1500000000000057,-0.0005556251507229704
S068,7891.0,7920.984375,N1,0.159703125,10.223740247651472,-47.53,81.64,129.17000000000002,0.835,54.062640729560535,812.5,845.2799479166666,6.670256113768337,2.453030120245842,6.1444970298633885,64.53959593169677,2.742781187039347,95.43060305792896,0.030208333333333334,6,0.12205295,0.0012829555906187856,-1.5512113582930103e-06,34.61800000000001,0.015143755588800782,9.861113786109659e-06,72.28166666666667,0.821235180823509,2.1599999999999966,0.0014476740038178169
S068,7921.0,7950.984375,N2,-0.0877604166666667,7.861458177193751,-17.7,16.47,34.17,1.6349999999999998,38.84225340545106,828.125,827.6285807291666,0.24168238095460928,0.3247177593909654,0.40051507635654476,64.42801842836997,0.3048629095519657,65.00769185258002,0.075,54,0.12090005000000001,0.0009085673048817041,-4.7036731509530105e-07,34.62733333333334,0.013399834161494354,4.1666677969479255e-06,73.156,0.3580744801481012,1.0400000000000063,0.0004386806745553042
S068,7951.0,7980.984375,N2,0.014979166666666625,10.188959946492707,-23.22,20.81,44.03,1.96,65.1190122844374,828.125,839.4938151041666,0.3476343040826092,0.4019470300058896,0.5479592426423906,64.4052896013188,0.3554992314907324,65.00769185258002,0.12395833333333334,85,0.11997132499999999,0.0010653093773054878,-3.5777939392887363e-07,34.63133333333334,0.01454494948618049,1.1250003051758547e-05,72.38566666666667,0.594349410887418,1.7000000000000028,-0.001036701670112213
S068,7981.0,8010.984375,N2,0.02823958333333337,10.055958040349338,-24.34,23.44,47.78,1.78,91.17084850179063,812.5,839.0625,0.46527764821722906,0.5384157251191272,0.6828051502909808,64.35373497293875,0.4317156078872625,66.04543890383347,0.16458333333333333,110,0.11946959999999998,0.000974645622777841,-5.943530258119121e-07,34.64399999999999,0.010198039027183541,5.138890282901072e-06,72.34099999999998,0.41644807599507566,1.1899999999999977,-0.00032184036508256525
S068,8011.0,8040.984375,N2,0.009666666666666683,10.689678749330538,-27.12,20.18,47.3,1.74,70.4503420150417,843.75,842.3502604166666,0.4253215695212271,0.5577256876891484,0.7541436460574927,64.34268186411602,0.4512931787155957,66.29479617586888,0.16666666666666666,116,0.11873302499999999,0.0010167061888151383,-3.25531989347871e-07,34.642999999999994,0.01129896750445064,1.2743059012329726e-05,71.98533333333334,0.05760401220594019,0.23000000000000398,-1.0972225198626016e-05
S068,8041.0,8070.984375,N2,0.0984635416666667,11.69138417559611,-24.75,23.86,48.61,1.915,71.93939530841847,796.875,825.927734375,0.22522895372758409,0.49899965034222893,0.5608734198155191,64.29846177562615,0.3893113000447713,65.03076195155643,0.14791666666666667,113,0.1181459,0.0010292383057387625,-5.493178573453372e-07,34.64833333333332,0.008975274678555722,2.3958339832444183e-06,71.91433333333335,0.1903450083984916,0.7000000000000028,0.00013753475953091023
S068,8071.0,8100.984375,N1,-0.09632291666666663,10.579217742421136,-26.61,24.31,50.92,1.43,65.66555596637062,796.875,817.9117838541666,0.28098753185071323,0.49025220266942426,0.518574267423031,64.30685268084675,0.40767423744224596,65.52098900352466,0.16979166666666667,113,0.11736662499999999,0.0009067468413923448,-2.410215497562802e-07,34.64866666666665,0.012310790208411219,6.319446158702991e-06,72.57999999999998,0.20066555924389817,0.6599999999999966,0.00034104175918016355
S068,8101.0,8130.984375,N1,0.01645312500000005,11.287357546761232,-26.69,25.39,52.08,2.08,69.64070661676627,843.75,831.2418619791666,0.4289529706642287,0.5188127472091126,0.6705283662385624,64.30334884112966,0.39811365545170213,65.54387843269576,0.159375,110,0.1169076,0.0008550668336451806,-1.1286591603350554e-07,34.65199999999998,0.010770329614267481,7.847224350916477e-06,73.61699999999999,0.49648195670470485,1.3699999999999903,0.0007071182473736547
S068,8131.0,8160.984375,N1,-0.08124479166666664,11.04835844058943,-24.42,23.39,47.81,1.44,76.96664587047853,812.5,824.5442708333334,0.4884028320852459,0.4503037169511262,0.5804981322943444,64.24608814118176,0.3408815368608823,65.22269543648132,0.128125,87,0.116256425,0.0009057408814749389,-5.990789385522289e-07,34.65466666666666,0.008055363982395525,1.0416669492370244e-06,73.48733333333332,0.4157558043959079,1.1599999999999966,0.0005997223849073299
S068,8161.0,8190.984375,N1,0.08335937500000005,12.216262987135206,-25.8,23.02,48.82,2.0300000000000002,53.71484360796487,796.875,798.4375,0.48717938174762687,0.4279919197056567,0.5120837994980247,64.24964478463079,0.33043413176188563,65.06919393998976,0.121875,80,0.115850775,0.0008399400421309862,-8.423244472451254e-08,34.65233333333332,0.00760847480700737,-2.1180561301146307e-06,73.01466666666667,0.5690561386092665,1.9000000000000057,0.0004476390103187408
S068,8191.0,8220.984375,N1,-0.037458333333333343,15.861723483696968,-58.61,104.75,163.36,1.125,45.70618245185479,718.75,748.7141927083334,9.733434946583605,7.910853128596323,22.989559238584263,63.93672925795668,4.57448377358003,86.3075894692929,0.06875,19,0.113331475,0.0027222505853383523,-3.3250966051151825e-06,34.65333333333332,0.010110500592067346,-1.388889265641799e-07,74.30333333333334,0.5037018518484483,1.980000000000004,0.0004900695773843275
S068,8221.0,8250.984375,N1,-0.03499479166666665,5.032126279795272,-15.08,9.77,24.85,0.915,57.62833079827606,843.75,832.8206380208334,0.517278493589822,0.162326296048696,0.5143502761710371,63.08781197259828,0.18501489152262152,63.34824385884742,0.10625,54,0.1120398,0.0009047967782878112,2.307357396744088e-07,34.658666666666655,0.011469767022722982,9.097224690002668e-06,76.135,0.39440038877600836,1.2000000000000028,-0.0003337153683038654
S068,8251.0,8280.984375,N1,0.037760416666666644,5.4208839209363715,-15.07,11.49,26.560000000000002,1.125,73.42922984782179,843.75,847.1842447916666,0.3782139472977637,0.2650647686834714,0.47981726664950275,63.17213436127507,0.2723023583147622,63.34824385884742,0.0,0,0.11254152499999999,0.0010881695177567684,4.117103981419256e-07,34.675999999999995,0.01624807680927347,1.8750005086266394e-05,75.90500000000002,0.702907058815981,2.5,-0.0012539239512597516
S068,8281.0,8310.984375,N1,-0.001963541666666635,5.851428106376037,-19.77,16.24,36.01,0.86,76.77457290506327,781.25,812.4104817708334,0.4374987599188774,0.36930866343600566,0.41163498317684327,63.1692312521236,0.35691691245866936,64.73020933072904,0.010416666666666666,6,0.112690975,0.0011272618038304127,-2.371296216171934e-07,34.682333333333325,0.017259457954667528,1.170139206309591e-05,73.97700000000002,0.2637694700554507,0.980000000000004,5.2673625399746234e-05
S068,8311.0,8340.984375,N1,0.037635416666666685,5.6113095742359755,-14.17,11.71,25.880000000000003,0.965,96.61686321355027,781.25,804.1829427083334,0.39368799114908243,0.3904666345647645,0.3086411048405935,63.14387330399143,0.3739061862912104,63.984373092185564,0.003125,3,0.11255219999999998,0.0010709105518202713,-2.685430415969619e-07,34.69966666666666,0.019232495649002517,5.38194590439124e-06,73.55966666666667,0.42738338240455176,1.2199999999999989,0.0007436460350602308
S068,8341.0,8370.984375,N2,-0.009510416666666669,6.187021561460314,-18.86,13.95,32.81,0.755,79.88573072637607,859.375,847.7213541666666,0.26677854098588133,0.4699106002445808,0.15475324781190647,63.02642326581437,0.45089206219176764,63.608175575157006,0.003125,3,0.11244545,0.0009809389876541755,-1.873685404103028e-07,34.706999999999994,0.01345362404707341,-5.868057147368269e-06,73.56366666666666,0.27786667466410825,1.1000000000000085,-0.00022420144970742808
S068,8371.0,8400.984375,N2,-0.04090104166666664,6.282498248325044,-25.74,17.32,43.06,0.64,82.1594975595723,875.0,849.4710286458334,0.5122797629767893,0.4847400058421925,0.3320548398482797,63.030365107007235,0.45317341496708874,64.88451279003334,0.015625,9,0.112285325,0.0009852857298139465,-1.9543039155555293e-07,34.714000000000006,0.012806248474864407,7.916668814199491e-06,72.18466666666667,0.45403915641225867,1.3799999999999955,-0.0007526390930553093
S068,8401.0,8430.984375,N2,0.04326562500000001,5.920025831540774,-18.03,15.26,33.29,0.935,97.79083844909464,796.875,836.8896484375,0.4917273532462431,0.5166488152157991,0.41065982644465676,62.89268707386085,0.4803602426841819,64.31174076325411,0.034375,26,0.11191169999999999,0.0007745078501861708,8.89583574648326e-09,34.718333333333334,0.014161763857497551,-5.6597237575203864e-06,71.45733333333332,0.12795658986112876,0.38000000000000966,-0.00016402782227317484
S068,8431.0,8460.984375,N2,-0.002442708333333347,5.818117994843865,-18.24,13.76,32.0,1.0150000000000001,68.22822657512611,843.75,834.5621744791666,0.2935042559553249,0.49525088339143825,0.3626421536407788,62.83606170388398,0.47233414622129016,63.7102817447859,0.41041666666666665,191,0.112050475,0.0007009013478193653,8.701239339528932e-08,34.724666666666664,0.01839081896551108,1.2777781243972556e-05,70.59866666666667,0.2771850565155981,0.9500000000000028,-0.00037583343528467723
S068,8461.0,8490.984375,N2,0.009119791666666648,7.369341381854733,-21.28,34.34,55.620000000000005,0.685,98.85046584528159,781.25,773.681640625,0.6429066752302045,0.5274979841325358,0.6205955920636956,62.887331143743474,0.48866138632692924,64.19501538281614,0.14166666666666666,77,0.112050475,0.0008587239657625741,-2.454694676295216e-07,34.73866666666666,0.015216949614018812,1.0902780735347078e-05,70.405,0.3190167184751717,1.3500000000000085,0.00025746534761972474
S068,8491.0,8520.984375,N2,-0.051468749999999994,6.032168809898043,-24.32,15.53,39.85,0.785,120.26159770259538,859.375,827.3681640625,0.5736160503890114,0.4697027354851387,0.44626147666536886,62.74127817417254,0.4606749444387839,64.52906321960671,0.27395833333333336,142,0.111965075,0.0008016207141628789,-7.422462950971973e-08,34.75599999999999,0.01280624847486707,8.68055791030838e-06,72.04266666666666,0.5002061797121488,1.480000000000004,-0.0005340279226421217
S068,8521.0,8550.984375,N2,0.05975520833333333,5.561412008997989,-17.57,15.82,33.39,0.88,120.47347244657925,812.5,757.5927734375,0.5283612226471793,0.3516824641001532,0.5016887713153334,62.700973942021214,0.35111734312441994,63.96092557178953,0.14270833333333333,87,0.11199709999999999,0.000946168795723048,-3.7251312188398445e-08,34.766666666666666,0.01719172927763732,1.0208336102522237e-05,72.99,0.5220153254455273,1.5499999999999972,-0.0006455557306737554
S068,8551.0,8580.984375,N2,-0.03356249999999998,5.373165899891833,-12.66,11.29,23.95,0.81,67.3858194709187,843.75,844.4905598958334,0.5728181733519129,0.40343576522993924,0.6066033835469067,62.71019787354062,0.38302436134317575,64.41273166075166,0.175,98,0.112157225,0.0009027162756785772,1.5095121282313684e-07,34.78866666666668,0.011469767022722982,7.222224181374381e-06,73.58566666666665,0.2700948393106073,1.0500000000000114,0.0004264237267859521
S068,8581.0,8610.984375,N2,0.030713541666666636,6.018926110371209,-20.9,23.99,44.89,0.655,91.38902427607914,812.5,861.8082682291666,0.616765194831514,0.46825900210840105,0.5616882646069992,62.73552764308405,0.44303462299361146,64.52906321960671,0.25729166666666664,134,0.11183697499999999,0.0008560657827381045,1.0647203409072139e-07,34.809333333333335,0.014126413400277845,1.0486113955651951e-05,73.99499999999999,0.8057863654013185,2.8300000000000125,-0.00020496533337818252
S068,8611.0,8640.984375,N2,-0.03004166666666668,6.194103370203301,-29.73,20.37,50.1,0.89,78.42876465052004,765.625,801.7903645833334,0.499347447439044,0.424630916126647,0.6499190320831425,62.7417875729911,0.3904704158562069,64.66065264130884,0.14479166666666668,68,0.11191169999999999,0.0008257786991682482,2.0794016057404574e-07,34.82699999999999,0.008999999999999236,6.215279463779271e-06,73.20633333333333,0.7923024815196674,2.3999999999999915,0.0008448960625260599
S068,8641.0,8670.984375,N2,-0.031015625000000012,5.562918398100275,-18.14,13.44,31.58,0.615,92.25223624641315,890.625,879.9397786458334,0.3972766995957184,0.28835734184726813,0.5202121295416153,62.706618995602135,0.2970984243013085,63.82789358893179,0.09479166666666666,56,0.1120825,0.0008750895954129514,-9.451825480638562e-09,34.840333333333334,0.01538036266007825,6.909724096605541e-06,73.14666666666668,0.16501178409098352,0.5800000000000125,-0.00010104169407598302
S068,8671.0,8700.984375,N2,0.015343749999999974,5.252037916625247,-16.78,11.96,28.740000000000002,0.79,104.07483153518814,859.375,826.9938151041666,0.48953900508539666,0.4986690184185855,0.31976961107439006,62.94361749914272,0.45868411964648453,63.7102817447859,0.08333333333333333,47,0.1120825,0.0008101755365351403,-1.0508205975533267e-07,34.84666666666668,0.015129074290545406,1.1319447515040033e-05,73.329,0.2695595172375368,0.9300000000000068,8.204863336822752e-05
S068,8701.0,8730.984375,N2,-0.006322916666666675,5.737817985005987,-18.66,15.25,33.91,0.635,125.44053227661749,781.25,825.3092447916666,0.41197356981027583,0.5199064669486233,0.4107866352770282,62.75193603069468,0.48706542983223694,65.25335240430181,0.31875,165,0.111965075,0.0008981602693144492,6.310483482661554e-08,34.865,0.014999999999998202,9.062502458360433e-06,72.08366666666667,0.2914158921922803,1.1400000000000006,-0.00041690983531625326
S068,8731.0,8760.984375,N2,0.008229166666666739,6.791220725869734,-34.87,22.21,57.08,0.78,130.05359839739722,734.375,747.3225911458334,0.7931975330199211,0.527173905261716,0.4699244546260128,62.95338176567301,0.47527984608549606,64.41273166075166,0.09166666666666666,42,0.111538075,0.0009082536921890302,-2.6381712885664397e-07,34.880333333333326,0.01328742095199697,5.659723757521003e-06,70.24933333333334,0.5011582140956639,1.759999999999991,-0.00019493060843386764
S068,8761.0,8790.984375,W,0.08432812500000005,15.449646745106634,-119.98,57.03,177.01,0.755,53.931343761631815,750.0,762.060546875,15.159058874884755,10.35655106474145,20.10846359520593,63.609374885821815,6.065830663229944,104.9952379872535,0.07604166666666666,26,0.112947175,0.0031796271942438462,3.766552454034411e-06,34.896666666666654,0.011925695879997564,8.333335593894667e-06,70.86200000000001,1.4236441502941193,4.75,0.002020903325982889
S068,8791.0,8820.984375,N2,-0.078890625,2.8687053860938345,-9.91,7.76,17.67,0.235,77.84321469432953,875.0,881.9661458333334,0.3754496725224597,0.07902948640996107,0.57312496213498,62.897163141403595,0.09125292868620517,63.92182725798755,0.010416666666666666,6,0.12035562499999998,0.001822113370340881,2.9420196782822504e-06,34.90999999999999,0.014605934866804443,1.2361114464277526e-05,73.878,0.9022061848602014,2.4200000000000017,-0.0014175003845215894
S068,8821.0,8850.984375,W,0.10765625,4.73006561866069,-38.25,23.75,62.0,0.75,48.841914285560264,921.875,905.0455729166666,10.40015978568158,4.3188960971831545,6.512700932600852,63.07876240744448,4.220355412975899,96.26006440887103,0.04375,9,0.122533325,0.0026946499715872203,-2.976491041799871e-06,34.923333333333325,0.010749676997733082,-3.333334237558636e-06,72.31166666666667,1.3324615900238492,4.1499999999999915,-0.0023144103500462075
S068,8851.0,8880.984375,N1,-0.13083333333333333,14.159237978750443,-78.88,47.33,126.21,1.125,22.735806799128365,921.875,911.328125,24.503068118548384,12.141509378985795,15.171198384328994,63.45238783341708,7.908111546862824,179.43801158060128,0.06979166666666667,23,0.12488139166666666,0.005989795934609449,1.0095739500797389e-05,34.92666666666666,0.012736648783030524,1.3194448023669602e-06,69.06866666666666,0.5656602828160702,1.5499999999999972,0.0007035418575146084
S068,8881.0,8910.984375,N1,0.04800520833333337,23.207449211091458,-93.99,280.32,374.31,0.37,76.17755705678617,796.875,811.2548828125,22.324247972239547,13.430271149895754,5.529592108726365,62.618822108525634,3.2250311741368733,114.62547709824373,0.03125,7,0.1311901083333333,0.004728237816205655,-5.678227885804003e-06,34.952,0.018867962264113594,2.3958339832449345e-05,70.336,0.9394203886794593,2.3900000000000006,0.0015732643156641491
S068,8911.0,8940.984375,N1,0.00088541666666667,4.378631153515597,-11.5,11.14,22.64,0.715,78.94006011065319,828.125,812.3291015625,0.6252213149824095,0.21489661597046048,0.6949337685767856,63.269170426073124,0.21308901859947163,64.26507605223851,0.005208333333333333,4,0.12700575833333333,0.00105399164288143,-9.727541701264602e-08,34.95133333333333,0.01257864150940831,-1.055555841893393e-05,71.42699999999999,0.47835934888603016,1.5499999999999972,-0.00022531256111994342
S068,8941.0,8970.984375,N2,-0.02946875,3.497915023187399,-10.3,7.08,17.380000000000003,0.49,84.98670983665123,843.75,859.7412109375,0.3957771341684049,0.20912350152216008,0.5480701226804833,63.27087317407447,0.21100819143184574,63.419239982831705,0.0,0,0.12840370833333334,0.0008747821480787126,7.695095403400379e-07,34.92866666666666,0.01627540748764692,-1.0138891639240284e-05,71.259,0.9525101924214077,2.6000000000000085,-0.0014527434496374378
S068,8971.0,9000.984375,N2,-0.001109375000000005,3.3098944734745106,-7.71,6.34,14.05,0.585,82.89739348030032,859.375,839.3310546875,0.26252480041575754,0.1821904480893551,0.41415388142573284,63.28577719706256,0.1853723201823708,63.419239982831705,0.0,0,0.12939635,0.0009352664740596595,4.047605264649841e-07,34.90666666666665,0.015563490039904645,-1.3402781413513985e-05,71.446,0.4661444697372967,1.4299999999999926,-0.00010923614074331167
S068,9001.0,9030.984375,W,-0.0445416666666666,12.029250513433102,-45.48,59.09,104.57,0.365,60.673013640700454,703.125,751.7008463541666,21.894369376012268,17.02331313534961,14.497844517710975,63.799555813867,7.468197213513868,131.98484761517133,0.057291666666666664,17,0.12382475,0.004889721274009388,-5.355822199387526e-06,34.88733333333333,0.012364824660661133,-1.027778056580402e-05,72.776,1.8301941609202765,5.550000000000011,0.0032525703267606183
S068,9031.0,9060.984375,W,0.008729166666666692,19.461202058775367,-88.52,118.08,206.6,0.2,38.147860449738644,859.375,856.8440755208334,21.617861297624547,19.4093377396823,19.925865177743155,63.45387359947335,4.852908085748817,94.15412895885129,0.06875,26,0.115402425,0.0020388691091816078,-1.3252015313589232e-06,34.87833333333333,0.01752775576684657,-5.3125014411088175e-06,77.68466666666667,1.1061275795414487,3.0,0.001966319977842877
S068,9061.0,9090.984375,N1,0.026682291666666677,4.563833638772863,-13.48,12.81,26.29,0.62,68.17018274365545,843.75,858.3577473958334,0.35604739609199343,0.07198059875565237,0.4026765916961153,63.20711893144856,0.07713442196778117,63.31666447310692,0.08854166666666667,40,0.11432425,0.0009391573550263021,-2.918946104314802e-07,34.837,0.013453624047073462,-8.15972443569087e-06,77.01333333333334,1.7019191781306444,5.840000000000003,-0.002950209133628779
S068,9091.0,9120.984375,N2,0.039166666666666676,4.540225367631973,-13.13,10.44,23.57,0.95,78.72355370265605,875.0,864.6240234375,0.46517619123176207,0.16827350421923892,0.11613999424784252,63.27086390628105,0.16729879317332935,63.419239982831705,0.0,0,0.11387589999999999,0.0012309159150811215,-2.9467455910226123e-08,34.830666666666666,0.009285592184789946,2.4305562148878627e-06,71.61266666666667,0.9263762134731698,3.3799999999999955,-0.0016458337797943183
S068,9121.0,9150.984375,N2,-0.03326041666666666,4.378883216511926,-11.64,13.68,25.32,0.505,112.99273585523972,859.375,829.8502604166666,0.3673998351780916,0.31725377318043396,0.48371819268098193,63.23271522316907,0.3142061514413006,63.419239982831705,0.0,0,0.11329944999999997,0.0008569305966646274,-4.169923006163987e-08,34.830666666666666,0.012092238098144529,6.944446328253324e-07,70.076,0.3969013311475117,1.1700000000000017,0.0006796529621454438
S068,9151.0,9180.984375,W,-0.04159895833333331,15.336406273676012,-118.85,92.48,211.32999999999998,0.69,49.33192177956873,750.0,774.0641276041666,20.310834440261733,14.76466487178228,18.193884427344138,63.584888850174366,4.673555203943279,89.2972563968233,0.09791666666666667,41,0.11163419999999999,0.003946938194347613,-1.2775949646253712e-06,34.81833333333334,0.01439521525445906,-1.107639189355275e-05,70.38000000000001,0.7678932217437532,2.5700000000000074,0.0010510419517800434
S068,9181.0,9210.984375,N1,0.0526354166666667,17.625149834835796,-90.73,77.29,168.02,2.1,88.31713012018916,750.0,826.416015625,8.615725438196652,6.907302898623553,5.895115441423377,63.765506474227884,5.1709098894876835,98.08159868191383,0.059375,26,0.12338707499999998,0.005994827962728234,9.335260561865388e-06,34.79600000000001,0.015620499351813144,-1.2708336780689785e-05,73.252,0.8130904008780334,2.280000000000001,-0.0005566668176722062
S068,9211.0,9240.984375,N1,0.06469791666666666,11.920415038932676,-27.23,19.57,46.8,3.26,72.14670058590316,875.0,873.8688151041666,0.6103411144939087,0.3679664462360061,0.6023959324024358,63.78702551798515,0.3575969349854957,66.01514977639603,0.2,116,0.13281235,0.0019844018185589383,3.0457117637022025e-06,34.76266666666666,0.014126413400278894,-1.3402781413515858e-05,71.81533333333333,0.7103085401585875,2.480000000000004,-0.0011620836485687007
S068,9241.0,9270.984375,N2,-0.036614583333333325,11.08849728685635,-37.73,34.25,71.97999999999999,1.5950000000000002,81.67520386000612,843.75,841.5120442708334,3.2465311014540323,1.8050805999240649,2.4334332171280604,63.74337460109319,1.2747167520836076,83.17451532771321,0.026041666666666668,14,0.132727025,0.003481289513150984,2.249413153595149e-06,34.74,0.014375905768565981,-2.4305562148859853e-06,68.70599999999999,0.5578267353459018,2.069999999999993,-3.701389892955003e-05
S068,9271.0,9300.984375,N1,-0.05554166666666666,9.088125203065658,-32.37,31.22,63.589999999999996,1.0,74.64851919245469,859.375,892.7897135416666,1.1338980670187637,1.0817250682423372,1.1758746559889885,63.60117292743731,0.9203544177193932,69.0,0.041666666666666664,20,0.13572662500000002,0.0023176061754264857,2.9025444071572195e-06,34.723,0.013940349110883198,-1.2673614549047624e-05,69.28299999999999,0.24329885600498388,0.710000000000008,0.00039697927435418937
S068,9301.0,9330.984375,N1,0.05421354166666667,8.258386123247687,-21.62,16.17,37.790000000000006,1.14,84.02193042982528,796.875,807.5927734375,0.7399764213585908,0.5920443336909453,0.8262925218088459,63.5431683248197,0.5440290221699595,65.70388116390082,0.08645833333333333,47,0.1414591,0.0017480944024851775,2.6415072269713653e-06,34.68733333333333,0.019988885800754783,-2.4791673391840384e-05,69.68,0.6881618026791843,2.019999999999996,0.0010138197194606428
S068,9331.0,9360.984375,N2,-0.08655208333333334,8.637873755022353,-18.89,18.67,37.56,1.045,72.63721321495883,875.0,869.2220052083334,0.4552345530206257,0.2914805954090255,0.20473719180533206,63.60011955852463,0.378869557199565,64.50581369148055,0.003125,3,0.146124075,0.0014990300094978079,2.2481444900565563e-06,34.66399999999999,0.012806248474866107,-1.0000002712673985e-05,70.193,0.6159824131688626,1.8500000000000085,-0.0005387154239136904
S068,9361.0,9390.984375,N2,0.05558333333333329,8.553665294610388,-18.85,17.2,36.05,0.935,59.66706248370537,812.5,831.8440755208334,1.2909793198059631,1.082273119026185,1.1314969612260959,63.48206362192801,0.6903308154914551,68.044103344816,0.06145833333333333,26,0.14603867500000003,0.0032554199682030263,-4.070122848883148e-06,34.64933333333332,0.011527744310525391,-1.0416669492368757e-06,70.384,0.42090854113453363,1.1899999999999977,-0.0006596529567200967
S068,9391.0,9420.984375,N1,-0.055031250000000025,6.962465993263936,-15.27,13.09,28.36,0.845,87.62689502001383,828.125,860.6119791666666,0.4671953385630041,0.4742684425044065,0.49881695979086366,63.34563334131538,0.5199229952275706,64.1404708432983,0.16145833333333334,98,0.14562235,0.0011808306514907198,1.443349349866902e-06,34.64499999999999,0.010246950765957559,-3.784723248893357e-06,71.40633333333332,0.2223133424296032,1.1799999999999926,0.0002571875697665934
S068,9421.0,9450.984375,N2,0.04223437500000002,8.149924140576505,-30.36,21.2,51.56,0.925,50.080583458811915,820.3125,818.3024088541666,1.528519035769046,1.1083940302928779,1.3971196653740867,63.34650098657748,0.8623974861997332,69.57729514719583,0.05,25,0.148259075,0.0014080887469811731,1.3760745920341318e-07,34.64766666666666,0.009551032521261035,-6.909724096603468e-06,72.43866666666666,0.18862190281677846,0.7000000000000028,0.00018604171713371172
S068,9451.0,9480.984375,N2,0.05428645833333334,7.840033814979688,-15.93,14.49,30.42,1.1949999999999998,62.21594581094435,906.25,897.6725260416666,0.23790170706033664,0.4330127018922193,0.2870750936166354,63.411403346437496,0.3278220585649615,64.27285585688566,0.05,35,0.15126907500000003,0.0015332165272312316,2.1146696274602937e-06,34.64133333333333,0.010873004286864565,1.0486113955649486e-05,72.334,0.7961515768579087,2.6299999999999955,-0.0009654169285527689
S068,9481.0,9510.984375,N1,-0.07170833333333336,8.52164547871657,-18.23,15.01,33.24,0.9299999999999999,78.90839862311165,843.75,836.9791666666666,0.5216649610595121,0.5518661129270597,0.4881228215202491,63.39544561517842,0.5171800972145673,67.0,0.08333333333333333,44,0.15361692500000002,0.0011357216733755612,5.162364681631007e-07,34.649999999999984,0.00999999999999801,1.0208336102519698e-05,70.91566666666667,0.46534348126470393,1.269999999999996,0.0007912154924087137
S068,9511.0,9540.984375,N1,0.08588020833333333,8.388142713590812,-16.8,14.75,31.55,0.955,42.50250039194033,796.875,803.1168619791666,0.3278454496998378,0.46393241957267395,0.32301577780092,63.389975520380794,0.4038401402229956,65.00769185258002,0.08854166666666667,56,0.15605082499999998,0.0011654342943190788,1.0894618840771208e-06,34.672999999999995,0.02131509637166486,2.1145839069510688e-05,70.89766666666667,0.9989183594713278,3.3299999999999983,0.0014968406838217992
S068,9541.0,9570.984375,N2,-0.06958333333333334,8.9793904844495,-22.18,16.92,39.1,0.515,24.162308749438456,781.25,785.44921875,0.6846500271833942,0.5966886343721396,0.7320745588546445,63.36780957496728,0.4935851875322051,65.52098900352466,0.07395833333333333,42,0.15862350000000003,0.0013264519780225759,1.6763090484779345e-06,34.702,0.02166410241236234,3.104167508726009e-05,73.89466666666667,0.32546104050852037,1.2999999999999972,8.652780124994716e-05
S068,9571.0,9600.984375,N2,0.032239583333333294,8.15569853083923,-17.07,15.76,32.83,0.855,68.48573855207616,828.125,825.5533854166666,0.5136578637981382,0.3960402419753438,0.1819908231813413,63.24932596353856,0.432837719453069,65.26101439603893,0.08854166666666667,61,0.1616979,0.0011544803982744772,9.629742195568042e-07,34.73233333333334,0.019267128022158304,1.8090282685081003e-05,74.75266666666667,0.36693263081328037,1.230000000000004,-0.00028361118804556726
S068,9601.0,9630.984375,N2,0.02963541666666667,7.50438612526561,-15.84,14.56,30.4,1.12,46.16436837944786,859.375,869.4417317708334,0.6205955920636956,0.5932746635318998,0.463212664142748,63.30742448860318,0.5236136805632178,66.76076692189807,0.16145833333333334,99,0.16307497499999998,0.0011312982031166706,1.300181993321942e-06,34.75,0.013662601021281601,4.166667796948296e-06,73.21133333333334,0.8142634026461525,2.700000000000003,-0.0014318059439577771
S068,9631.0,9660.984375,N2,-0.019135416666666665,8.515205821939695,-23.45,20.35,43.8,0.895,35.072324443606206,812.5,811.1490885416666,0.5022475526736457,0.436561493377508,0.2633892840085859,63.25879791777985,0.4682709302933748,64.76109943476871,0.13229166666666667,77,0.16500715000000005,0.0010587103133057729,8.89583574648325e-07,34.78,0.016124515496596537,9.236113616567612e-06,71.50433333333334,0.3320409947916429,0.9300000000000068,0.00047440985091413404
S068,9661.0,9690.984375,N1,-0.07774999999999999,8.219238796618171,-17.37,17.17,34.540000000000006,0.775,34.192144152482065,796.875,799.7233072916666,0.5699649340456541,0.38034244210170504,0.24753778822075267,63.21729936454196,0.4777754569021154,65.54387843269576,0.08125,53,0.16675785,0.0009352664740596693,9.896617267962617e-07,34.80933333333334,0.01504068556357105,1.0069447175956112e-05,72.515,0.6655361247395465,2.1599999999999966,0.001167465594473089
S068,9691.0,9720.984375,N2,-0.016078125000000002,8.68442287735037,-18.69,16.07,34.760000000000005,1.17,58.37246399806764,828.125,832.6009114583334,0.4923360115448482,0.2810396589995006,0.1512534434869721,63.161162218949265,0.3990661827866287,64.76109943476871,0.3802083333333333,163,0.1687861,0.0010810776521600976,1.0397008028702204e-06,34.82666666666667,0.012736648783028664,4.652779039927225e-06,73.96233333333333,0.4415479085620907,1.1899999999999977,-0.0006706599041503659
S068,9721.0,9750.984375,N2,0.027338541666666685,8.563202997295434,-17.69,15.66,33.35,0.86,55.93747575263286,828.125,811.4583333333334,0.502009849394301,0.3437878767011231,0.19071036340045427,63.155202419195646,0.4313147231727203,65.98484674529449,0.06666666666666667,42,0.17017385,0.0010011761470890047,7.05550972642947e-07,34.855000000000004,0.016881943016131967,1.8645838391338506e-05,73.15266666666666,0.2968830671418551,0.8499999999999943,-0.00026402784939991565
S068,9751.0,9780.984375,N2,0.10530729166666668,8.52368469260244,-20.18,16.98,37.16,1.0150000000000001,64.10143684655395,859.375,855.8349609375,0.5091598045773275,0.38190261765926664,0.292854723180093,63.17858743551697,0.4824482556760449,65.7419196555744,0.09479166666666666,42,0.17129472500000004,0.0008745034015800071,5.996349282863853e-07,34.880666666666656,0.01824524291120471,1.381944819320896e-05,72.53133333333335,0.391396928393102,1.259999999999991,-0.0004907640220171488
S068,9781.0,9810.984375,N2,-0.0061822916666666545,8.13944422870422,-17.53,17.81,35.34,0.925,73.78335769488622,890.625,883.740234375,0.689249667512917,0.5526441726800548,0.5426113556988402,63.11627557585003,0.5257208701942889,66.55824516917495,0.08541666666666667,40,0.172853275,0.000925159823692645,7.831115405576038e-07,34.902666666666654,0.013148721948876303,1.0347225029085505e-05,71.92299999999999,0.9031911942292913,2.9799999999999898,-0.0013024656310941937
S068,9811.0,9840.984375,N2,-0.0711510416666667,8.021156457437195,-19.04,17.2,36.239999999999995,0.985,76.40850990384011,890.625,890.7063802083334,0.4025957443060387,0.34409547033974935,0.2541239718239024,63.08294226654649,0.38147083186504116,64.5445582524197,0.21354166666666666,100,0.17419806666666665,0.0009423761168214954,8.467215838545987e-07,34.924,0.011718930554165776,1.0069447175957667e-05,69.86733333333333,0.5485735036336415,1.8799999999999955,-0.0004472917880023302
S068,9841.0,9870.984375,N2,0.01191145833333337,8.366518307271573,-20.17,15.4,35.57,0.9199999999999999,89.2611420666817,828.125,849.9430338541666,0.5737267000836624,0.5468412688010013,0.5215994365624087,63.32231379474278,0.5684341182527557,65.26101439603893,0.19479166666666667,97,0.17488104166666665,0.0009774348349620172,3.937229800680843e-07,34.943999999999996,0.015620499351814173,1.4930559605729222e-05,68.93733333333333,0.8992512935152716,2.3900000000000006,0.0013931948223727278
S068,9871.0,9900.984375,N2,-0.017989583333333375,8.356400336462155,-17.42,15.04,32.46,0.83,62.649281558996336,859.375,853.41796875,0.4884028320852458,0.423588341828872,0.2327280094635987,63.18426313073506,0.42931258157831736,64.79197481170026,0.08333333333333333,49,0.17678069166666666,0.0012207947738791076,6.207239097015759e-07,34.973333333333336,0.017191729277636816,1.8125004916722496e-05,70.12899999999999,0.7045677161683375,1.8299999999999983,0.0011032294659368115
S068,9901.0,9930.984375,N2,0.06105729166666669,8.424241736206945,-19.73,16.86,36.59,1.3,78.81232442827036,843.75,854.9397786458334,0.5128513362130935,0.38791979948609645,0.2729007628953955,63.1855671329472,0.46406474529310243,65.26101439603893,0.09270833333333334,57,0.17763468333333332,0.0009944665737916347,6.818994905326267e-07,35.00166666666667,0.01416176385749808,1.4340281667827564e-05,70.78933333333335,0.346928747087289,1.0100000000000051,-0.0004452084541038579
S068,9931.0,9960.984375,N2,-0.02975520833333337,8.024089622068892,-17.74,14.98,32.72,0.62,52.26607751579143,812.5,816.9921875,0.4847400058421925,0.3172537731804339,0.1757795138803154,63.165623138086865,0.39776908358103963,65.26101439603893,0.04895833333333333,35,0.179022425,0.001032720046467097,7.731037253428077e-07,35.03099999999999,0.017194960502037827,1.8993060707752294e-05,70.76933333333334,0.4092345157594715,1.5799999999999983,0.00036527787686574343
S068,9961.0,9990.984375,N2,-0.04660416666666666,7.973495425573987,-17.07,15.59,32.66,0.5449999999999999,42.73392755528723,796.875,797.412109375,0.590703992366077,0.37954994364671196,0.48483848792664963,63.19275030055476,0.4865450836283239,65.76473218982953,0.09375,57,0.1802714,0.0009316040145898931,6.67743670720399e-07,35.06266666666667,0.015040685563573141,1.5069448532295917e-05,72.64933333333333,0.47715080308943214,1.9200000000000017,0.0006690279592632278
S068,9991.0,10020.984375,N2,0.013062500000000052,8.317898447289862,-23.89,16.29,40.18,0.875,75.90374566620861,812.5,827.83203125,0.5110582702153987,0.2855743937663179,0.4999305507323548,63.13820076819692,0.4872324101775798,65.98484674529449,0.09895833333333333,52,0.181563075,0.0010780693017496629,6.863693268145986e-07,35.09266666666667,0.014360439485691398,8.333335593895209e-06,73.84733333333334,0.39813677158595795,1.0900000000000034,-0.0006620835129349811
S068,10021.0,10050.984375,N2,0.097453125,8.383410386671072,-20.24,17.61,37.849999999999994,1.08,70.49514032002173,875.0,868.1803385416666,0.375410654779832,0.2053853931569191,0.459614686147236,63.128682823932465,0.3987333051908124,64.5445582524197,0.17916666666666667,87,0.1827053,0.001096151499565642,7.67821822868336e-07,35.11333333333334,0.013743685418725672,2.2916672883212914e-06,72.37133333333334,0.6963080416661074,1.9200000000000017,-0.0011942364350684778
S068,10051.0,10080.984375,N2,-0.08541666666666667,8.326022186577987,-17.46,15.78,33.24,0.515,73.50078047772664,812.5,796.77734375,0.6731447949219808,0.697365298373098,0.8341662504161466,63.28044209246895,0.5988031799775902,66.89544080129826,0.14479166666666668,73,0.18346322499999998,0.0008179446646167481,-8.701239339528928e-08,35.132333333333335,0.015423647068345033,1.3576392571720174e-05,71.136,0.36624763935530275,1.019999999999996,0.0004886112436553896
S068,10081.0,10110.984375,N2,-0.02714583333333332,7.552576690523085,-16.87,14.08,30.950000000000003,1.0150000000000001,88.98879304731646,906.25,892.1549479166666,0.5399321186115281,0.5518818421621908,0.6800448055091665,63.3585087045002,0.497284031957553,65.98484674529449,0.21041666666666667,101,0.1837621333333333,0.0021106668572330946,-7.28046638467513e-07,35.15066666666666,0.011234866364233528,6.736112938397869e-06,70.31266666666666,0.729926632538427,2.4000000000000057,-0.0013090281328743839
S068,10111.0,10140.984375,N1,0.12076562499999995,17.601053167094907,-124.29,72.62,196.91000000000003,1.68,90.98388780696396,828.125,809.3180338541666,13.027810630585204,4.203123838289803,6.281885246346347,63.58544153579784,2.2072229228079028,78.70832230456955,0.0875,30,0.16472955000000003,0.00436714006501967,-8.405219293950508e-07,35.161666666666655,0.010027739304328152,-1.0763891808778286e-06,69.31033333333333,0.5439331045470776,1.8999999999999915,-0.0006004515517717968
S068,10141.0,10170.984375,N1,-0.05489062499999999,10.889950092120278,-22.36,18.78,41.14,2.075,85.38881755039388,843.75,841.8538411458334,0.8353822467971705,0.6635866350539485,0.9502923526765622,63.27327654819896,0.7400562062912696,67.36467917239716,0.11458333333333333,61,0.16554090000000005,0.0008550668336451864,-7.950653198419406e-08,35.166999999999994,0.012688577540450786,2.8819452262219174e-06,68.982,1.2254914660385579,3.5,0.0021606255861072016
S068,10171.0,10200.984375,W,0.013078125000000067,11.655887186227531,-26.06,21.44,47.5,1.955,56.50693293789572,828.125,832.4625651041666,0.8360346841223488,0.6710718714096295,0.8741755788789419,63.25852651530161,0.7118565723169934,65.92419889539804,0.14583333333333334,68,0.16701405000000002,0.00115979834346321,2.0238026323249486e-07,35.19033333333333,0.020080393975773093,2.1145839069510268e-05,70.25866666666666,0.36299433726835,1.1499999999999915,-0.00011152780803163146
S068,10201.0,10230.984375,N1,0.006239583333333336,12.373171494747542,-36.16,28.35,64.50999999999999,2.685,97.75539671864342,890.625,873.8932291666666,0.5662979422309428,0.4395969093480223,0.42117869492123594,63.24579560136877,0.48580388692312704,65.58200972827838,0.11875,66,0.1681456,0.001267406205602607,1.7936228823846784e-06,35.23133333333333,0.02109238935940887,2.6944451753595176e-05,71.27466666666666,1.1425577544361687,3.4399999999999977,-0.0016363893327879032
S068,10231.0,10260.984375,N2,-0.019729166666666697,13.060842655209859,-27.12,23.34,50.46,2.25,79.07418613238124,843.75,848.0224609375,0.546126471857837,0.39007739394111124,0.43803414813294583,63.31063829365991,0.4559281917484183,65.14598989960932,0.1125,58,0.169800225,0.0009177396277675838,4.867690122528757e-07,35.268,0.01886796226411342,2.520834017153282e-05,70.56933333333333,0.700294858533811,2.280000000000001,0.0010404169488978279
S068,10261.0,10290.984375,N2,-0.002572916666666673,13.240260585021222,-27.2,24.54,51.739999999999995,1.98,59.599333262145564,828.125,827.7180989583334,0.7043939167330703,0.39261852421346033,0.6089172069588406,63.32704304315003,0.5666004568409975,66.63332499583073,0.11041666666666666,61,0.17092110000000005,0.0007885061128488478,-5.448699394720846e-08,35.306666666666665,0.012736648783028789,1.1458336441606826e-05,69.85799999999999,0.6194750465784185,2.1899999999999977,0.0008450002292209821
S068,10291.0,10320.984375,N2,-0.13579166666666667,12.776646778984327,-30.61,24.52,55.129999999999995,1.8399999999999999,69.46537550094197,890.625,888.8346354166666,0.654707181154717,0.389956372203638,0.6518128765540511,63.33967201683542,0.592936589962517,66.31741852635702,0.12291666666666666,59,0.17094245000000002,0.001235905011519896,-5.632176006992148e-07,35.33733333333334,0.008919392106840278,7.500002034506907e-06,70.18233333333333,1.0284119905087743,2.780000000000001,-0.0016881601801649764
S068,10321.0,10350.984375,N2,0.19258333333333333,12.392170057865393,-45.59,28.57,74.16,2.66,50.45182014007394,906.25,915.087890625,0.6209582858037512,0.5248966498802936,0.8600502397712331,63.34897371763361,0.4928951097689944,67.7716754994297,0.084375,46,0.16985360000000002,0.0008813180697114883,7.694897920707921e-07,35.35533333333334,0.01707499796648516,1.2777781243970628e-05,70.34633333333333,0.5396016020073406,2.069999999999993,-0.0003370487025414224
S068,10351.0,10380.984375,N1,-0.17103125000000002,13.555415237824947,-33.27,23.16,56.43000000000001,1.625,90.74193783559367,859.375,849.1861979166666,0.6470552955934721,0.5355423004353209,0.5600632017286581,63.3909842018099,0.5172010497768911,66.2872536767062,0.08854166666666667,43,0.17077165,0.0015860909108559933,1.2415250763685642e-06,35.38566666666666,0.0194393644157632,2.3854173137524414e-05,69.039,0.6772559831161837,1.9300000000000068,0.000896423854281648
S068,10381.0,10410.984375,N1,0.04219791666666668,13.523611549280355,-34.85,24.91,59.760000000000005,2.0549999999999997,87.8166429893079,812.5,811.1083984375,0.4728570079844434,0.4082469615284628,0.544120044901756,63.363324238115744,0.47387568209612146,65.14598989960932,0.11666666666666667,58,0.17287460833333335,0.0013062509604196387,8.987413462297514e-07,35.399999999999984,0.015275252316518753,1.1597225368169696e-05,68.35333333333334,0.7198857934113966,2.200000000000003,0.0006842362967220873
S068,10411.0,10440.984375,W,0.18783854166666664,13.975233389709379,-33.24,36.15,69.39,2.08,58.487669816368154,828.125,819.62890625,19.065531151310665,16.894380717457178,10.647887114352782,64.28006266200929,8.739493835542948,132.5481044753187,0.08645833333333333,19,0.16924494166666668,0.011552897759361672,-1.157737011104875e-05,35.40933333333332,0.014126413400278003,6.597224011835024e-06,69.13266666666668,0.4696731724176813,1.9099999999999966,8.916669085467897e-05
S068,10441.0,10470.984375,N1,-0.20255208333333333,6.9370110148538755,-39.7,49.36,89.06,0.295,64.57655471175337,796.875,816.8782552083334,4.174700588066167,2.7086466164960603,4.852505080425527,63.315136951402536,2.5268754405013354,86.63140308225418,0.03229166666666667,6,0.15591205,0.001879648955922355,-2.3846399697916586e-06,35.37433333333333,0.02951647374301586,-4.5312512291804066e-05,72.30366666666669,0.6513907344205069,2.5799999999999983,0.0003638542653684498
S068,10471.0,10500.984375,N1,0.07633333333333335,2.6011625792881325,-6.31,8.21,14.52,0.3,102.84113363176229,812.5,818.4733072916666,0.9671604342380614,0.437141470156465,0.7204230226729448,62.988916206376295,0.40385865444801167,64.1404708432983,0.036458333333333336,18,0.1522935416666667,0.0009173455355520136,-1.7142647879407462e-07,35.303,0.02325940669922497,-3.593750974867176e-05,73.20499999999998,0.39051888558685566,1.2999999999999972,6.177085008974915e-05
S068,10501.0,10530.984375,N1,-0.013755208333333328,2.4950003783554235,-6.07,5.61,11.68,0.455,73.45147642422317,859.375,866.8212890625,0.5057825345167843,0.48465605645194976,0.33275340176907114,62.92052063520704,0.4674394732492836,63.419239982831705,0.00625,6,0.15198407500000002,0.0008532936009223292,-2.678561924523082e-07,35.23833333333333,0.022521594575479306,-2.6006951499281897e-05,71.05366666666666,0.7653212107053842,2.3900000000000006,-0.001318298968722593
S068,10531.0,10560.984375,N2,-0.017453124999999996,2.478259285535797,-6.25,5.99,12.24,0.5,75.69920270198415,906.25,885.0830078125,0.4274629918191749,0.4994256684071103,0.4637885578460177,62.830594892541406,0.4848664242340092,63.419239982831705,0.3333333333333333,191,0.15145052500000003,0.0009163945653347165,-1.96118325769945e-07,35.187999999999995,0.023295206946208607,-2.625000712077049e-05,70.15566666666668,0.64009730163121,2.049999999999997,-0.001001354438301443
S068,10561.0,10590.984375,N2,0.03924479166666668,2.6218747670786464,-6.05,5.46,11.51,0.47,85.73283127792965,890.625,868.6279296875,0.48569376926207325,0.49986868935473666,0.4900208594624655,62.82814880669469,0.48171657347726243,63.419239982831705,0.25833333333333336,164,0.15089566666666668,0.0008365007803675738,-3.446437566850479e-07,35.163666666666664,0.01303414319734564,-1.3159725792027047e-05,69.29633333333332,0.5449983690087716,1.4699999999999989,0.0007839238237640566
S068,10591.0,10620.984375,N2,-0.02032812499999998,2.9401905668540125,-7.87,6.69,14.56,0.37,80.60264887086927,828.125,858.4879557291666,0.5340449354273061,0.5199116845409634,0.4637920671995396,62.80958604737109,0.49017910796751357,64.16385275215322,0.12708333333333333,99,0.14997775000000005,0.0008685541074107043,-3.2191805607586266e-07,35.15033333333333,0.013034143197343447,-5.937501610650199e-06,69.56766666666665,0.8508062189607105,2.269999999999996,0.001329271193921221
S068,10621.0,10650.984375,N1,-0.01529687500000001,2.9903351810789656,-8.32,11.82,20.14,0.325,88.14380490205014,843.75,862.3046875,0.5845077463606069,0.5644410952437817,0.5733521072507617,62.739655920166314,0.5104654926060798,66.35510530471637,0.16770833333333332,102,0.14907037500000003,0.0008603149332511933,-4.378419156472224e-07,35.14199999999999,0.011944315244777534,-1.8055560453434471e-06,69.925,0.42984299459221076,1.3799999999999955,0.0003449653713556233
S068,10651.0,10680.984375,N2,0.011078125000000005,2.888020269532369,-7.88,7.6,15.48,0.58,88.32336891401356,875.0,868.0826822916666,0.42352557765801535,0.4220987061201838,0.7406711483512775,62.64649993353158,0.3971306393321549,63.54525946126902,0.22916666666666666,120,0.1486754,0.0009461687957230496,1.2287373124829982e-07,35.135,0.011761519176250233,-9.895836017749771e-06,68.759,0.9932550864036224,3.0600000000000023,-0.0015480906977242553
S068,10681.0,10710.984375,N2,0.019614583333333335,2.720533889353459,-8.44,7.09,15.53,0.595,106.50530292201408,906.25,875.0651041666666,0.07902948640996107,0.44807531105272913,0.3108009366495253,62.57753029743847,0.4396895190586886,63.474404290233394,0.278125,164,0.148365825,0.0009157507545041968,-6.366082456077072e-08,35.126000000000005,0.013063945294843919,5.555557062604142e-07,69.00233333333334,0.794009585724393,2.3299999999999983,-0.0010878822395513884
S068,10711.0,10740.984375,N2,-0.002312499999999999,2.9385902704092226,-9.55,7.12,16.67,0.42,157.396282369603,828.125,775.8707682291666,0.33346188927255577,0.5036315600355967,0.5167916095568245,62.7118931237377,0.48166638201785583,64.25729530566937,0.34791666666666665,164,0.14808826666666666,0.0009397859573091957,-4.956450997301176e-07,35.12733333333334,0.011234866364235468,-1.5277781922144e-06,69.644,0.8394704680134176,2.6799999999999926,0.0011141669689038007
S068,10741.0,10770.984375,N2,-0.03021354166666668,2.98437828642471,-8.57,8.57,17.14,0.26,140.7659260130305,812.5,772.4202473958334,0.45136752086175735,0.5360678190278001,0.6221732952923968,62.65337935238663,0.49570393643845334,64.25729530566937,0.3416666666666667,167,0.14782139166666663,0.0008334246446223518,-1.806725750522399e-07,35.11933333333333,0.01236482466066172,-1.2361114464278612e-05,68.74966666666667,0.7531776387782338,2.200000000000003,0.0008346877264235377
S068,10771.0,10800.984375,N1,0.007624999999999996,2.838396056204102,-7.92,6.35,14.27,0.4,74.5992337403135,812.5,841.2109375,0.27725558555639995,0.46351240544347894,0.4834668906709124,62.61675186174527,0.4537928506335637,63.54525946126902,0.3125,161,0.14780005,0.0008779497978244572,7.061069623771084e-08,35.117333333333335,0.012092238098145417,-4.375001186795859e-06,68.21666666666665,0.5758838617483746,1.8499999999999943,-0.0002604861817725092
S068,10801.0,10830.984375,N2,0.01627604166666667,2.958593915198738,-7.39,5.82,13.21,0.685,69.8508467210989,890.625,883.1461588541666,0.19309926563529156,0.4604956097480433,0.3415396105220528,62.60345845379461,0.44920072426333735,63.474404290233394,0.30520833333333336,172,0.14768262499999996,0.0008496522137763221,-1.38997433538802e-09,35.10800000000001,0.015790292376435634,-8.125002204047621e-06,68.13033333333333,0.8182113962105945,2.219999999999999,-0.0014076045485038392
S068,10831.0,10860.984375,N2,-0.004510416666666661,2.9302955748766184,-7.64,6.61,14.25,0.565,76.751658263294,906.25,877.5146484375,0.14994211846205485,0.45780153807505813,0.46837484987987993,62.61005305785788,0.44838349533289756,63.34824385884742,0.2989583333333333,173,0.14774666666666664,0.0008827595494936474,-1.253568048385434e-07,35.107333333333344,0.012364824660660216,-8.333335593893629e-07,69.04866666666666,0.7312260632359575,2.339999999999989,3.958334407100313e-06
S068,10861.0,10890.984375,N2,0.025229166666666667,2.7808064533181684,-7.11,7.09,14.2,0.33,129.03658869762745,812.5,839.5670572916666,0.29233368669210874,0.4694855340334424,0.5642103626603586,62.61864945209738,0.4490164755832662,63.43500610861482,0.30520833333333336,160,0.1474798,0.0010580642986132778,-5.037266991446141e-07,35.11333333333334,0.01043498389499959,3.6805565539702544e-06,69.41133333333333,0.9720896163534608,2.759999999999991,0.001366597592935543
S068,10891.0,10920.984375,N2,-0.021510416666666667,3.0756865104083935,-7.93,9.19,17.119999999999997,0.51,118.83177925045997,843.75,796.8587239583334,0.4198007133020248,0.5235719665591986,0.6920234709711802,62.627171592354486,0.4796735088787413,65.30696746902278,0.26145833333333335,134,0.14697806666666666,0.0010260336798673957,-3.8780392464299305e-07,35.103333333333346,0.011925695879997566,-1.111111412519279e-05,68.44866666666667,0.8215097213193652,2.5999999999999943,0.0004362501183404174
S068,10921.0,10950.984375,N2,-0.00196354166666665,2.8649950095804337,-7.68,6.73,14.41,0.59,80.64924159888041,843.75,855.8430989583334,0.23418742493993994,0.4098068121247973,0.3622829211135346,62.575757955606015,0.38935795194717965,63.43500610861482,0.21354166666666666,126,0.14676457499999998,0.0007517352887652701,-3.363737891638981e-08,35.092000000000006,0.011944315244778646,-4.9305568930541755e-06,68.67533333333333,0.9153277494367195,2.680000000000007,-0.0007036113019778904
S068,10951.0,10980.984375,N2,0.015171874999999994,2.7809952639224296,-7.36,8.13,15.490000000000002,0.5,68.69631125517057,859.375,873.3723958333334,0.12867851305568553,0.4564164460470528,0.46809560803738476,62.63543693255007,0.44365745255684375,63.43500610861482,0.29583333333333334,155,0.14609205,0.0009185463774355685,-5.204063911692701e-07,35.09333333333334,0.015563490039904797,6.944446328192959e-08,70.56066666666668,0.9199236683309961,2.730000000000004,-0.0010503475071472214
S068,10981.0,11010.984375,N2,-0.012713541666666665,2.9295053943356417,-8.22,9.74,17.96,0.35,64.88426760606696,812.5,836.3688151041666,0.48808614157464275,0.4349129861886807,0.5883711036034618,62.585680630844955,0.40347033002721466,64.02343321003646,0.23125,102,0.1456437,0.000986730388708083,5.4486993947209705e-08,35.09466666666667,0.01521694961401721,8.263891130611579e-06,70.46966666666667,0.8334645896630656,2.6499999999999915,0.0006011459964046198
S068,11011.0,11040.984375,W,0.10889583333333323,26.353955935842265,-217.88,189.92,407.79999999999995,0.675,57.69136987437439,843.75,865.7958984375,12.559095335693636,7.9698906454882845,13.378085703243695,63.249558252450655,4.832576697427402,126.91335627111907,0.090625,35,0.146913875,0.0046970589052485814,7.340325341885203e-07,35.088666666666676,0.012578641509408763,-4.16666779694758e-06,68.70166666666667,0.690835645351982,2.010000000000005,0.0007489238142696973
S068,11041.0,11070.984375,N1,-0.11971354166666666,11.956199275516376,-55.3,66.61,121.91,0.06,66.53790556347118,843.75,829.4759114583334,2.3093973179646294,1.4832162875169472,1.7492806061032316,62.63273379451886,1.5689138785381067,79.27799190191436,0.022916666666666665,7,0.143028325,0.0008512601361364194,3.1330021519645295e-07,35.080000000000005,0.013416407864999777,-3.263889774276015e-06,69.05233333333332,0.3901083894965038,1.1500000000000057,-0.0004584376243591653
S068,11071.0,11100.984375,N1,0.019942708333333323,3.331187827257368,-11.5,6.63,18.13,0.68,80.41689620701737,906.25,874.2513020833334,0.3027578675920559,0.0,0.49258389020438836,62.745899347866754,0.10221722313326832,63.095166217389426,0.3302083333333333,143,0.14394637500000004,0.0008915382685981486,4.111544084077685e-07,35.04833333333333,0.01790406533599404,-1.8506949464775165e-05,68.96633333333332,0.2777826888454762,1.0600000000000023,-0.0004387153967869471
S068,11101.0,11130.984375,W,-0.00999479166666665,3.6828509464439194,-10.35,8.6,18.95,0.435,66.80521872636666,890.625,869.8567708333334,0.4017526165820896,0.19538956812822256,0.53906023550249,62.79718264420203,0.18901574201460192,63.788713735268246,0.036458333333333336,27,0.14439472500000003,0.0009637698373444683,-2.671530672615725e-07,35.03099999999999,0.0164012194668557,-4.2013900285885566e-06,67.60266666666665,0.42950307203661475,1.269999999999996,0.0003511806508194036
S068,11131.0,11160.984375,N2,0.024692708333333334,3.473286944270297,-10.12,7.03,17.15,0.55,54.8301018291221,906.25,891.9677734375,0.46639570816766984,0.10152910775842672,0.4776231934596095,62.84787137308734,0.14164699738755862,63.229739838148944,0.2125,114,0.14457620000000002,0.0010185538817362512,7.461382232362732e-07,35.016666666666666,0.018318175552045166,-5.625001525878571e-06,67.94766666666666,0.47535028020280884,1.3499999999999943,-0.0006619099017767757
S068,11161.0,11190.984375,N2,-0.049218750000000006,3.450769360782477,-7.98,5.96,13.940000000000001,0.755,88.09931189029814,875.0,878.759765625,0.48789046862487484,0.11987768650679834,0.3503718263026676,62.92170115365528,0.14485255754907728,63.229739838148944,0.0020833333333333333,2,0.14537682500000002,0.0008592546155680523,1.75970750860121e-07,35.016333333333336,0.01580787426850617,2.7430562996574683e-06,68.60733333333334,0.6967301406490802,2.0,-0.0005941668278447341
S068,11191.0,11220.984375,W,-0.001114583333333393,20.25320439171797,-128.91,133.24,262.15,0.905,43.77571440178583,843.75,854.4921875,17.080069524349053,21.40841987684434,22.184450494659544,63.426770974784446,7.695841325822712,127.1573827978541,0.10208333333333333,46,0.14440535833333332,0.005107049191715036,-5.4006308052921764e-08,35.00999999999999,0.01549193338482995,-3.402778700840367e-06,69.625,1.3731903242692438,4.6000000000000085,0.0024183687115800568
S068,11221.0,11250.984375,W,-0.012395833333333309,15.393993444061744,-43.1,79.33,122.43,0.335,3.533803775946266,843.75,843.4326171875,23.30936359505761,12.860104652243958,11.1780096307686,64.2904581398039,7.480148205358089,203.6516633862832,0.059375,18,0.14236647499999996,0.0032587787051861924,-4.9313509470895584e-06,35.01466666666666,0.017269111795984816,1.0902780735345672e-05,78.24900000000001,3.9657436040840213,12.61,0.007068647750826753
S068,11251.0,11280.984375,W,0.15527083333333336,10.535652854592477,-43.07,56.11,99.18,1.33,29.591616335107798,890.625,870.1171875,19.44557573283952,12.552426473525504,9.767690892594006,64.2457627066976,4.960436731582838,96.04686356149273,0.084375,25,0.139121275,0.003032733494617522,7.024930291051024e-07,35.03966666666666,0.01516208722072457,1.010416940759726e-05,85.51933333333334,0.6970793036344971,2.4799999999999898,-0.0011424308654597614
S068,11281.0,11310.984375,W,-0.2650208333333334,28.496293552838864,-151.83,88.65,240.48000000000002,2.665,0.0,890.625,890.625,31.06953384200867,25.429106842875722,15.177901058959224,65.73879465293388,10.966542036852736,162.42536747688152,0.09166666666666666,30,0.13755207500000002,0.004428760364862271,-1.280370790031139e-06,35.06066666666667,0.016110727964793927,1.5416670848707534e-05,81.19533333333334,1.4102901198768365,4.780000000000001,-0.0025168062382829423
S068,11311.0,11340.984375,W,0.28754166666666664,22.932897798939347,-108.97,98.27,207.24,0.48,0.0,890.625,890.625,19.54836905316883,35.21661977191625,15.871805473366129,65.39974165406733,9.199855066680046,149.3820605025918,0.08958333333333333,29,0.14019945833333333,0.004443181573857171,1.7091044132770203e-06,35.094000000000015,0.014047538337136416,1.5416670848705464e-05,83.234,3.0107923652531503,9.430000000000007,0.005409932023093538
S068,11341.0,11370.984375,W,-0.09459375000000002,20.913907975654087,-111.84,65.44,177.28,-1.4,0.0,890.625,890.625,19.015762119472754,23.43342510872853,17.600290007080375,65.5722556358537,10.422287776343573,137.62993860348845,0.10625,31,0.13919600833333334,0.003090920659759898,1.720258062135978e-06,35.114000000000004,0.010832051206181924,-7.22222418137591e-06,91.877,1.693552774495086,5.320000000000007,0.0028993410642743776
S068,11371.0,11400.984375,W,0.19347395833333333,15.326973750152492,-85.25,80.91,166.16,0.29,67.75398476031214,890.625,830.1432291666666,14.12100326782522,24.60965661214533,26.1095979817927,64.61036557565882,9.466422776303752,159.1257364476281,0.03958333333333333,13,0.14702059166666667,0.005364837033088447,-1.616109596383897e-06,35.11666666666667,0.01299572579307907,-9.722224859543803e-07,91.18166666666666,1.368880523964341,4.679999999999993,-0.002433021493332653
S068,11401.0,11430.984375,W,-0.5610729166666668,17.576629381407283,-52.27,84.0,136.27,-0.805,0.0,750.0,750.0,20.801858489646158,24.112745070323058,25.018024665423173,67.13411665618413,16.094220156954712,151.10923201446033,0.09895833333333333,35,0.13526776666666668,0.007762492160740357,-3.1170121302658728e-06,35.079333333333345,0.0229395340454488,-3.4722231641233054e-05,84.97266666666668,1.9333906888044017,5.900000000000006,-0.0034402092665498244
S068,11431.0,11460.984375,W,0.5504687500000001,26.23569290841086,-143.06,126.18,269.24,1.505,0.0,750.0,750.0,24.72275065514752,27.741645056533837,34.53579436852337,69.33337848000461,17.6128599858673,181.11874557869487,0.10833333333333334,51,0.149272625,0.03750681657024994,3.956823968322475e-05,35.054,0.013063945294843917,-1.2500003390843208e-05,85.063,1.015953246955784,3.219999999999999,0.0016664240631575698
S068,11461.0,11490.984375,W,-0.14509375000000008,27.325210547213437,-99.09,125.3,224.39,-2.075,0.0,750.0,750.0,19.956991517176796,21.942498144614,22.04742045943086,66.31196751458235,11.90697649888396,134.20506696842708,0.11458333333333333,44,0.14141633333333334,0.012755340566035684,-7.425495069850005e-06,35.02633333333333,0.01923249564900164,-9.756947091185594e-06,85.74233333333333,0.7347003168337126,2.6500000000000057,-0.0011544100353759886
S068,11491.0,11520.984375,W,-0.051619791666666734,12.248074012337272,-57.1,48.55,105.65,0.1,0.0,750.0,750.0,21.0825596603353,35.86377762854787,10.785165351846334,64.45323131238172,5.773117880251867,97.38069623903908,0.07708333333333334,23,0.137573375,0.008454024229188624,8.57379985183373e-06,34.99300000000001,0.011000000000000093,-1.1354169746682292e-05,78.36366666666666,2.6913113078117807,8.41000000000001,-0.004672674878655295
S068,11521.0,11550.984375,W,-0.006208333333333316,13.006790582163761,-74.43,70.29,144.72000000000003,0.17,85.29726537515094,750.0,800.146484375,11.680943598844015,17.288532566124015,17.194829119171263,63.81258718062681,8.495683255722875,144.65821787924804,0.07395833333333333,20,0.13726380833333335,0.007128185986275227,3.4396877820333555e-06,34.94066666666666,0.02862788073811273,-4.7777790738334335e-05,72.90133333333333,1.197042837811394,3.760000000000005,-0.00214902836073903
S068,11551.0,11580.984375,W,-0.02217708333333342,13.942447793290873,-73.25,93.19,166.44,0.22,21.005477188474455,906.25,917.1305338541666,10.939802882564887,3.448119801417949,4.804023808045074,63.362630085328604,1.8157368577185535,84.32081593533118,0.040625,20,0.14260119166666665,0.00570498418533571,-1.9566530915400073e-06,34.849666666666664,0.030384572108590847,-4.871529099264434e-05,69.56933333333335,0.9084673295660594,3.039999999999992,-0.0015847226521057524
S068,11581.0,11610.984375,W,0.01204166666666668,9.869259581435879,-57.43,48.66,106.09,0.925,16.121630833338607,937.5,939.0950520833334,0.9585003251245608,0.33618409876716193,0.9838782917899732,63.24678169575891,0.35181215965681706,66.10597552415364,0.12708333333333333,52,0.13713572499999999,0.0009102589463306523,1.4427933601327048e-07,34.785333333333334,0.01606929439092477,-2.1875005933973812e-05,65.76466666666667,0.9429447963104138,3.1299999999999955,-0.0015836115406932332
S068,11611.0,11640.984375,W,-0.008692708333333325,4.762136404465804,-15.27,10.94,26.21,0.45499999999999996,26.572147188269682,890.625,894.384765625,0.4306759464299502,0.3487079325484613,0.4336124401627436,63.12167147914973,0.3437024075588716,64.41273166075166,0.14166666666666666,101,0.137221125,0.0009290930305276165,4.531316333364674e-08,34.751333333333335,0.015434449203722118,-1.7638893673747068e-05,64.89033333333333,0.22859692814111737,0.6700000000000017,0.00037690982446555326
S068,11641.0,11670.984375,W,0.0060416666666667194,6.462263636742461,-32.82,28.54,61.36,0.47,42.98132201951093,937.5,924.6256510416666,3.4171288749861173,0.5891810686004959,0.9267415100171617,63.17834692838548,0.4639282235065773,65.25335240430181,0.16875,78,0.137498675,0.001065309377305481,7.286245466103897e-07,34.69566666666666,0.028481963103379734,-4.1006955568294875e-05,65.48966666666666,0.25531005115784644,0.8500000000000085,0.00023281256315444958
S068,11671.0,11700.984375,W,0.020838541666666675,7.906898509303835,-40.79,20.4,61.19,1.24,22.45626502341638,890.625,898.5758463541666,0.9509110215121777,0.4932882862316247,1.0439786841959733,63.079481975003205,0.48066318621098797,65.7875368135941,0.2125,127,0.1388117,0.00093453513042582,2.4908340090153105e-07,34.607,0.03277702447345288,-5.399307020211272e-05,65.19066666666666,0.1094816067758529,0.4100000000000108,-2.2361117176953248e-05
S068,11701.0,11730.984375,W,-0.005625000000000006,5.002234836488087,-11.08,8.88,19.96,0.945,24.862631254647233,921.875,915.1123046875,0.11557806855349138,0.4427647022936926,0.194978186101819,63.09863997016458,0.4368072598006923,63.984373092185564,0.2677083333333333,185,0.140146075,0.0009571255243566573,7.01937039370944e-07,34.50800000000001,0.02650786046942775,-3.9722232997566746e-05,66.00733333333332,0.17035127107114698,0.7999999999999972,0.00011006947430270093
S068,11731.0,11760.984375,W,-0.22105729166666668,15.07132281288046,-70.05,88.59,158.64,0.48,26.169885967833665,875.0,881.298828125,8.732386786729935,5.308093658737622,10.215674231297706,63.401335170917704,4.1629404926029,98.16312953446422,0.07395833333333333,24,0.1399646,0.0019548953526979415,-1.5512113582930156e-06,34.44799999999999,0.026507860469429323,-4.1736122432760566e-05,68.11366666666666,0.771338591166176,2.469999999999999,0.0013068406322809866
S068,11761.0,11790.984375,W,0.21440625000000002,10.824564332147244,-44.0,92.17,136.17000000000002,0.735,26.154130325912014,906.25,910.8235677083334,1.5164319873381142,1.079156611922271,1.3547498744130675,63.342402079429334,0.9028282272428031,77.78817390837762,0.017708333333333333,6,0.1441065,0.001970687113673802,3.0040125336405437e-06,34.31333333333334,0.04526465385804695,-7.722224317009506e-05,68.68599999999999,0.09279367794557301,0.29999999999999716,9.500002577040788e-05
S068,11791.0,11820.984375,W,-0.002380208333333341,4.440339703036051,-9.04,7.16,16.2,0.63,18.131218205305412,875.0,886.42578125,0.5012311232244949,0.04559597630883185,0.2688206463993336,63.231301773313746,0.059310359950499346,63.324560795950255,0.042708333333333334,22,0.1483338,0.0013188702210604392,1.8820252501153628e-06,34.164,0.04111771718695738,-6.777779616368012e-05,68.04299999999999,0.46652724107673077,1.3799999999999955,-0.0008166321659700953
S068,11821.0,11850.984375,W,-0.023776041666666678,4.629305210406057,-9.97,7.65,17.62,0.63,31.970445560002986,875.0,865.6005859375,0.4953943697673826,0.0,0.4610478328402235,63.21782398361315,0.03901850295058252,63.324560795950255,0.2989583333333333,159,0.15109835,0.00115012904819416,1.1469538701589302e-06,34.104000000000006,0.017243356208502623,-1.4652781752599064e-05,67.73166666666665,0.4984916136595364,1.4300000000000068,0.0008279516134851373
S068,11851.0,11880.984375,W,0.036078125,4.654081238115619,-9.65,7.34,16.990000000000002,0.885,36.483609656421244,875.0,873.7060546875,0.40461208274098787,0.0,0.49914858064063006,63.19184523285108,0.033357668736372026,63.26926584053272,0.20625,138,0.1535635916666667,0.0011714437850777158,1.0768516376008066e-06,34.11600000000001,0.014742229591664074,1.4791670679164599e-05,68.64466666666667,0.09218580271507391,0.29999999999999716,0.0001594444876965325
S068,11881.0,11910.984375,W,-0.036140624999999996,4.383346057215645,-9.17,8.82,17.990000000000002,0.65,56.35478303187942,906.25,901.0091145833334,0.5108108596878105,0.08533405557962578,0.32011384422403366,63.17748926582746,0.07675762453340271,64.07807737440318,0.022916666666666665,15,0.154994,0.0009922583332983425,2.2962376020609973e-07,34.16566666666666,0.021241991955139938,3.10069528556184e-05,68.48466666666667,0.46106928859867435,1.25,-0.000781944656560506
S068,11911.0,11940.984375,W,0.018953125000000015,4.45554661324542,-9.63,7.75,17.380000000000003,0.84,22.38338035527429,921.875,921.0123697916666,0.32714138285304106,0.0,0.15612494995995996,63.22204974545658,0.023473027340199935,63.26926584053272,0.016666666666666666,13,0.15616824999999998,0.000986499385453436,7.956213095760958e-07,34.22133333333333,0.02539466260632139,3.479167610451279e-05,67.11200000000001,0.48724668632360507,1.5600000000000023,-0.0008757641264551128
S068,11941.0,11970.984375,N1,-0.05443749999999999,4.766894680179863,-9.79,7.87,17.66,0.675,39.559551255677015,921.875,919.775390625,0.3465542185414699,0.03225804701500421,0.11131708339493789,63.21919025161027,0.04113713695353693,63.26926584053272,0.007291666666666667,6,0.157844225,0.000998611873740247,7.536440846473774e-07,34.284666666666666,0.019955506062793598,3.055556384428133e-05,65.34966666666666,0.315684265612901,1.1600000000000108,-0.0005096181937983407
S068,11971.0,12000.984375,N1,0.021291666666666657,4.263248370073055,-11.89,13.9,25.79,0.735,68.23555719863526,890.625,905.6315104166666,0.42663085787234006,0.1328727396065707,0.5135490618128797,63.21618930251763,0.13644926379102298,64.319514923544,0.00625,3,0.15964830000000005,0.001045060146594441,7.711577612732622e-07,34.35033333333333,0.026768555350550567,3.975695522920772e-05,65.53866666666666,0.4837405181384849,1.2600000000000051,0.0008319446701238823
S068,12001.0,12030.984375,N1,0.0010781249999999964,4.101475907389496,-10.09,8.13,18.22,0.72,73.33959812801005,890.625,894.3684895833334,0.3752545432399483,0.19071036340045433,0.4393697644701506,63.216408141786026,0.1944864634404113,64.35060217278468,0.010416666666666666,5,0.16071580000000002,0.0010050386360732524,2.8855867202654923e-07,34.40733333333333,0.01768866554856231,2.4583340001990553e-05,66.38033333333333,0.5738959448850938,1.5499999999999972,0.0009137155256389757
S068,12031.0,12060.984375,N1,0.018729166666666682,4.274661323034762,-9.01,8.11,17.119999999999997,0.82,58.07989503361015,890.625,881.7138671875,0.40440151037950167,0.06441510347391795,0.31704849512951305,63.214906885489505,0.0686594899351608,63.29296959378664,0.0010416666666666667,1,0.16175127499999997,0.0008900031176209421,4.800971354430144e-07,34.432,0.016613247725837662,1.8819449549548765e-05,66.432,0.40997886124368194,1.4099999999999966,-0.0006077084981848125
S068,12061.0,12090.984375,N1,-0.00035416666666664615,4.199405982247089,-9.39,7.89,17.28,0.84,71.02764209349289,937.5,921.7692057291666,0.46902306861058424,0.0,0.4280933179680441,63.21256343132315,0.03148186164655609,63.26926584053272,0.0375,7,0.16281877499999997,0.0008560657827381054,3.6723121940951165e-07,34.47333333333334,0.013498971154211063,1.4236114972903592e-05,67.012,0.7166096101318561,2.049999999999997,-0.0010465280616666795
S068,12091.0,12120.984375,N2,0.006458333333333328,3.7065327124232814,-8.59,7.36,15.95,0.795,37.4718313031032,906.25,911.3606770833334,0.4953943697673826,0.0,0.14683805681959824,63.199690269634786,0.03511631476761903,63.26926584053272,0.004166666666666667,4,0.16359805,0.00093818614757414,4.57023561475577e-07,34.489000000000004,0.009433981132057113,8.645835678667035e-06,66.76533333333333,0.3272179022540727,1.1200000000000045,-3.2291675426343334e-05
S068,12121.0,12150.984375,N2,-0.02050520833333332,3.7969290503661695,-8.47,6.87,15.34,0.815,34.449883017966535,890.625,896.337890625,0.498956158659144,0.0,0.13297069826552851,63.19214086655835,0.03534639603871547,63.229739838148944,0.4635416666666667,186,0.16416382500000004,0.0008750244821575025,4.0337055212959994e-07,34.5,0.010954451150103088,6.527779548551368e-06,66.291,0.4460295206971524,1.1999999999999886,0.0007461460357383957
S068,12151.0,12180.984375,N2,0.014411458333333347,3.7348803901355,-8.44,7.51,15.95,0.76,28.982649183689784,890.625,892.138671875,0.49402242835950505,0.0,0.10699797992641417,63.18863786280994,0.0354030506528972,63.26926584053272,0.42083333333333334,197,0.16507120000000003,0.0008740472012425903,5.165144630301838e-07,34.504999999999995,0.0143178210632764,3.2291675426343986e-06,66.58833333333334,0.19836134256004279,0.6500000000000057,0.000275243130220034
S068,12181.0,12210.984375,N2,0.0024114583333333423,3.8105672515543807,-8.34,6.37,14.71,0.6799999999999999,36.914190777662824,906.25,910.8805338541666,0.49986868935473666,0.0,0.116252053446619,63.193261576767355,0.035701870977254774,63.26926584053272,0.484375,207,0.16567967500000005,0.000851260136136425,3.327598558918891e-07,34.50633333333334,0.01328742095199681,6.006946073932868e-06,66.77033333333334,0.14005911450368097,0.37000000000000455,-0.00023079867371925686
S068,12211.0,12240.984375,N2,0.023052083333333338,3.6177022169632282,-8.01,5.91,13.92,0.85,50.712953596808354,890.625,886.7594401041666,0.4996081363734538,0.0,0.11599041357658256,63.1925362870656,0.035696982563389455,63.229739838148944,0.47604166666666664,209,0.166128025,0.0009325209779811948,3.894708087757193e-07,34.501333333333335,0.012840906856172287,-8.888891300154613e-06,66.76899999999999,0.24636490550942314,0.6700000000000017,0.00037461815717723613
S068,12241.0,12270.984375,N2,-0.00751562499999999,4.156803161781602,-9.33,7.83,17.16,0.71,52.347596186946824,906.25,915.5598958333334,0.4931815908944922,0.0,0.14657179104642054,63.199541944849464,0.03508980686726699,63.229739838148944,0.0,0,0.16676852500000003,0.0008797003179350371,2.3824160108550446e-07,34.494666666666674,0.00921351664072321,-4.305556723512548e-06,66.79266666666666,0.10510100961561789,0.37999999999999545,2.3611117516035655e-05
S068,12271.0,12300.984375,N2,-0.03296874999999999,3.7631382264704865,-8.61,6.52,15.129999999999999,0.635,34.454669528517265,890.625,894.62890625,0.4871793817476269,0.0,0.165984933846084,63.20343985362588,0.03510464016583343,63.419239982831705,0.0010416666666666667,1,0.1675051,0.0009746456227778398,1.0730601869195409e-07,34.501,0.012206555615733524,1.7361115820621676e-07,66.51433333333334,0.1431475540210957,0.45000000000000284,-0.00024239589908743069
S068,12301.0,12330.984375,N2,0.022192708333333325,3.6172473757605843,-8.46,5.98,14.440000000000001,0.83,59.626851028902045,906.25,900.7893880208334,0.49972214501883166,0.03225804701500421,0.22242937393448936,63.19158049722431,0.04774162564749881,63.229739838148944,0.0,0,0.1678894,0.0008709125329216504,3.146901895318449e-07,34.498000000000005,0.00979795897113231,-7.847224350917785e-06,66.043,0.21788605584877002,0.730000000000004,-0.0001612153215102317
S068,12331.0,12360.984375,N2,0.003916666666666687,4.075409344641209,-9.61,7.1,16.71,0.535,42.90896099626975,906.25,916.9677734375,0.49989148127924293,0.0,0.14359895446075582,63.19458043064846,0.035414605774371846,63.229739838148944,0.0,0,0.168156275,0.0010322785715953823,2.960645334376452e-07,34.47933333333334,0.013148721948877973,-1.6180559944814058e-05,66.40866666666668,0.3560312096182313,0.9699999999999989,-0.0005934029387486246
S068,12361.0,12390.984375,N2,-0.015927083333333324,3.9568884917760605,-8.75,7.44,16.19,0.595,33.442568607748385,890.625,891.7805989583334,0.4951051638428839,0.04564354645876384,0.18219044808935514,63.188350713483004,0.05628004270163121,64.15605972938177,0.0010416666666666667,1,0.16851922499999997,0.0008399400421309834,1.2481969531784272e-07,34.46866666666668,0.011469767022722982,-5.1388902829018615e-06,66.15133333333333,0.22399007914538296,0.5999999999999943,0.0003786806582792557
S068,12391.0,12420.984375,N2,-0.021312499999999998,4.032241098612997,-8.36,7.98,16.34,0.685,49.85406293910036,921.875,919.0266927083334,0.4983468765578852,0.03225804701500421,0.2957874817753449,63.1879048346807,0.04716216706223762,63.229739838148944,0.0,0,0.169031625,0.0008966364560818329,3.7279111675106027e-07,34.458666666666666,0.009910712498210366,-2.8472229945803237e-06,66.14666666666666,0.12493553893463945,0.3499999999999943,0.00015680559809179545
S068,12421.0,12450.984375,N2,0.017166666666666667,3.977086702460595,-9.02,7.93,16.95,0.655,45.359406728832326,875.0,878.6946614583334,0.4302776881141862,0.08523227047636098,0.217905114416548,63.16972399193826,0.08857642090529523,64.15605972938177,0.0010416666666666667,1,0.1695653666666667,0.00105968577837436,1.092691268633701e-07,34.45666666666668,0.011925695879997564,8.333335593891657e-07,66.54366666666665,0.18175960925231785,0.539999999999992,0.00019538199744520185
S068,12451.0,12480.984375,N2,-0.022260416666666664,4.056605261136848,-8.72,6.81,15.530000000000001,0.685,43.598238046675355,890.625,887.8987630208334,0.42096609910683097,0.032258047015004204,0.19497818610181897,63.172944744627294,0.044372952736299175,63.229739838148944,0.215625,143,0.17008844166666665,0.0010083897956299148,3.024512539201485e-07,34.449333333333335,0.014126413400277845,-7.986113277483518e-06,66.954,0.23515385034766895,0.960000000000008,0.00040569455449613776
S068,12481.0,12510.984375,N2,-0.008145833333333342,4.078805112456258,-9.12,7.72,16.84,0.645,49.3717996281714,921.875,909.6354166666666,0.43480194844894615,0.0,0.1356408400888169,63.17611037113348,0.030876760865849,63.229739838148944,0.24375,150,0.17066489166666668,0.0009604708896840913,2.4798769747930047e-07,34.447333333333326,0.013399834161495013,1.5138892995576832e-05,67.8,0.27934447074057833,0.9000000000000057,-0.0003449306491239847
S068,12511.0,12540.984375,N2,0.049104166666666664,4.113781035229753,-9.86,7.01,16.869999999999997,0.89,30.988017878809117,906.25,898.2666015625,0.4609348516873074,0.03225804701500421,0.24016912082368583,63.1778401776884,0.046659930643648574,63.229739838148944,0.284375,156,0.17104918333333335,0.0010835165202811748,1.7905560412749625e-07,34.45133333333333,0.013597385369580283,1.0138891639238829e-05,66.95500000000001,0.11603878661895715,0.5699999999999932,-0.00017829865947771706
S068,12541.0,12570.984375,N2,-0.018182291666666683,4.002688312520276,-9.3,7.96,17.26,0.5,40.67971791272221,890.625,887.5406901041666,0.43119338396478213,0.07198059875565237,0.26454231965583286,63.16927002780332,0.07631614816262278,63.229739838148944,0.0,0,0.17141215000000004,0.0008429871158564671,3.2358602527832823e-07,34.457333333333324,0.012092238098143472,-2.0138894351917503e-06,66.49433333333333,0.22093261919015503,0.7800000000000011,0.00024017367626238978
S068,12571.0,12600.984375,N2,0.0030000000000000066,3.926639699963995,-8.52,7.62,16.14,0.75,49.57661385511943,875.0,872.2900390625,0.4377776896503013,0.032258047015004204,0.304820572791966,63.173225632771484,0.04354864265967439,63.229739838148944,0.215625,127,0.17172172500000002,0.0008951100487509932,2.9884448210842175e-07,34.461333333333336,0.011175369742825191,3.4027787008401704e-06,67.29133333333333,0.14538989724950654,0.6299999999999955,0.0002502778456699875
S068,12601.0,12630.984375,N2,0.027932291666666668,3.378222712216033,-8.87,7.26,16.13,0.54,74.12256220682393,906.25,907.3323567708334,0.4402579243245436,0.1546971447610531,0.2849220166213126,63.169512590327045,0.15867923781458598,64.22616289332565,0.008333333333333333,5,0.17197792500000003,0.0008016207141628791,1.1981578771044625e-07,34.464000000000006,0.013808210118137688,-1.0208336102520684e-05,68.18066666666667,0.3578168370673592,1.1200000000000045,3.06944527708486e-05
S068,12631.0,12660.984375,N2,-0.007140624999999995,3.699506569155488,-7.96,6.72,14.68,0.75,35.305536046703466,937.5,932.4788411458334,0.495674650728681,0.0,0.22008274564480418,63.188250493740576,0.035348837237492166,63.229739838148944,0.40520833333333334,202,0.1722341166666667,0.000888947694218035,-2.9219191953990965e-07,34.45466666666666,0.01117536974282563,4.5138901133591e-06,66.62666666666668,0.5073613658484021,1.769999999999996,-0.0009122224696784052
S068,12661.0,12690.984375,N2,0.016588541666666647,3.4821032283954536,-7.8,7.58,15.379999999999999,0.56,40.06440805171995,890.625,884.5052083333334,0.46798548766672954,0.04559597630883185,0.295032660621385,63.17653040162965,0.05558547740722944,63.229739838148944,0.0,0,0.16944794999999999,0.001008434428954101,-5.943530258119067e-07,34.45333333333333,0.013743685418724812,-3.1250008477107283e-06,64.87966666666667,0.39642135271562723,1.2299999999999898,-0.00018163199371527507
S068,12691.0,12720.984375,N2,-0.07514062500000002,3.463941048053687,-7.64,6.36,14.0,0.525,64.50249678685611,875.0,875.6103515625,0.40385377708260806,0.04559597630883185,0.25693294831639546,63.1689809617643,0.05254444715379143,63.229739838148944,0.16458333333333333,101,0.16906364999999998,0.0009055521395811443,8.895835746483553e-09,34.440666666666665,0.01691810338726744,-2.0833338984739677e-05,66.767,0.6714469450373562,2.019999999999996,0.0011860767106327862
S068,12721.0,12750.984375,N2,0.018947916666666672,4.094843675459907,-9.31,7.78,17.09,0.765,35.36895736139514,921.875,908.7972005208334,0.4180069589233334,0.06441510347391795,0.318518434404597,63.167473259967245,0.06853430763966559,63.229739838148944,0.0,0,0.16974685,0.000935266474059657,3.4360165570791303e-07,34.42133333333333,0.015216949614018685,-6.736112938399177e-06,67.238,0.14998666607402084,0.5499999999999972,-0.0002623611822811359
S068,12751.0,12780.984375,N2,0.013203124999999993,3.8224694380169435,-8.76,7.47,16.23,0.755,71.58977841904432,859.375,865.3483072916666,0.44936297503614303,0.13667682889047272,0.3658549253309143,63.16446166626431,0.1397584023488976,64.26507605223851,0.004166666666666667,2,0.16949065000000002,0.0008098941767292716,-8.061851145250476e-08,34.426666666666655,0.01468181036369853,3.2638897742756963e-06,66.61866666666667,0.2397044476479784,1.0100000000000051,0.00012930559063194217
S068,12781.0,12810.984375,N2,0.0017083333333333338,3.7975747603916754,-8.58,7.15,15.73,0.575,41.73011716997095,937.5,928.3040364583334,0.4207495275464436,0.03225804701500421,0.2565462379810357,63.171923446366506,0.042872909982926484,63.229739838148944,0.20729166666666668,141,0.1701098,0.0008997448304936158,1.3176956699478176e-07,34.419999999999995,0.013416407864999775,3.402778700841502e-06,67.21433333333334,0.2154326396399156,0.6999999999999886,-0.0003792709362171575
S068,12811.0,12840.984375,N2,-0.01462500000000001,3.8051258007291957,-8.48,7.37,15.850000000000001,0.635,67.49704111152403,875.0,880.2083333333334,0.43408888458727235,0.045595976308831845,0.3106612571059782,63.17161635610316,0.056008546860578254,63.26926584053272,0.21458333333333332,121,0.16973615833333333,0.0011336285620066244,1.3615672096266074e-08,34.42866666666666,0.013597385369582885,1.1388891978325342e-05,66.905,0.08663140308225419,0.3499999999999943,-0.00010163197201388121
S068,12841.0,12870.984375,N2,0.009421874999999998,3.1444951451472805,-7.52,5.97,13.489999999999998,0.525,44.085232497267235,953.125,951.6276041666666,0.4613713236254383,0.032258047015004204,0.3259334884434075,63.17650489441465,0.046324860161701696,63.229739838148944,0.25,160,0.17017385,0.0009449636381893144,4.942748736639693e-07,34.43733333333333,0.013148721948878814,-6.458335085269635e-06,66.31266666666666,0.17460304184699038,0.7400000000000091,-0.00028048618719785816
S068,12871.0,12900.984375,N2,0.024192708333333333,3.8292974870220644,-8.1,6.34,14.44,0.795,32.2825388159244,875.0,870.7194010416666,0.49798966515101717,0.0,0.4416654382844553,63.18463948803274,0.03650708608172391,63.229739838148944,0.32395833333333335,200,0.17080367500000002,0.0009132585720238261,3.744590859535251e-07,34.428666666666665,0.01024152766382641,8.333335593896591e-06,65.76866666666666,0.09527970519592512,0.3200000000000074,-2.68055628270305e-05
S068,12901.0,12930.984375,N2,-0.03654687499999999,3.7949960615497,-8.55,8.26,16.810000000000002,0.505,60.338905870098266,859.375,862.1988932291666,0.4663584826879425,0.06441510347391795,0.4282504378281475,63.17091580103764,0.07203141592938357,63.26926584053272,0.0010416666666666667,1,0.17133741666666671,0.000992166036032054,6.507697077825822e-07,34.458,0.011075498483889161,1.0694447345497542e-05,66.88933333333334,0.7133252335988753,2.7900000000000063,0.0012497225612311653
S068,12931.0,12960.984375,N2,0.06875520833333333,3.669241287729255,-8.42,7.32,15.74,0.73,80.3809710819714,906.25,891.9026692708334,0.4119735698102759,0.045595976308831845,0.36985914877228004,63.167999241501434,0.05319923879803894,63.229739838148944,0.15833333333333333,105,0.17205262500000004,0.0009639762623503786,-6.170292472410087e-08,34.452,0.013012814197294838,-1.048611395565104e-05,68.17166666666667,0.5041433878923314,1.5100000000000051,-0.0008718405142796568
S068,12961.0,12990.984375,N2,-0.04244791666666668,3.767908771149322,-8.71,7.5,16.21,0.515,51.228434566372094,906.25,894.7102864583334,0.4582279708440864,0.07902948640996106,0.3421680772011842,63.17424791369015,0.08431413255535875,64.15605972938177,0.0020833333333333333,2,0.17146552500000004,0.0008640157981049913,-3.666752296753565e-07,34.446666666666665,0.01043498389499959,4.513890113360358e-06,67.15566666666668,0.3046821659077261,1.0700000000000074,-0.0004203126140170941
S068,12991.0,13020.984375,N2,-0.0014270833333333345,3.9654993308030995,-10.02,8.0,18.02,0.66,59.338508233841914,843.75,854.443359375,0.4833153732295301,0.09128709291752768,0.4416359560863827,63.17013610059687,0.09973313759877497,64.28841264178172,0.004166666666666667,4,0.17182846666666668,0.000968456365677994,4.0890809703453285e-07,34.452,0.010770329614268317,5.3472236727491775e-06,66.98766666666667,0.580641503473146,1.8700000000000045,0.001033090558021527
S068,13021.0,13050.984375,N2,0.00044270833333335256,2.909585373140418,-7.3,5.27,12.57,0.555,33.854651814432444,921.875,937.2721354166666,0.48741875213265595,0.0,0.4717715118306743,63.178260028835226,0.0347811569830134,63.229739838148944,0.22291666666666668,150,0.1721380416666667,0.0009947429014225547,6.443779959792761e-07,34.46833333333334,0.014624940645653166,2.187500593397127e-06,67.47333333333333,0.5518353216515068,1.6299999999999955,-0.0009463197011500923
S068,13051.0,13080.984375,N2,0.0070520833333333295,3.685687528777681,-7.58,6.37,13.95,0.665,30.656351144398904,906.25,910.107421875,0.49495720914932534,0.0,0.49658556384798613,63.18592581064968,0.035769415359659454,63.229739838148944,0.221875,145,0.17299202500000005,0.0011197035654024697,6.782703662842804e-07,34.46533333333334,0.015216949614017214,9.097224690001977e-06,65.599,0.5934495204592671,2.1400000000000006,-0.0010626738993798567
S068,13081.0,13110.984375,N2,-0.02764583333333332,3.6514269013952116,-8.8,7.37,16.17,0.46,38.811991747130335,890.625,888.330078125,0.4931815908944922,0.05589199343873463,0.498956158659144,63.17460113471657,0.06439308556297857,64.13267497929586,0.0010416666666666667,1,0.17221277500000007,0.0010167061888151393,-9.543563786774058e-07,34.47466666666667,0.013349989596334193,1.4583337289311618e-06,65.098,0.6910156775838494,2.049999999999997,0.0012256947769354318
S068,13111.0,13140.984375,N2,0.04100520833333334,3.451813469632961,-7.47,6.7,14.17,0.555,59.49293715411762,906.25,897.2574869791666,0.4816410298108148,0.045595976308831845,0.48812282152024894,63.17218414510194,0.057230562922497834,63.229739838148944,0.19479166666666667,126,0.1723515416666667,0.0009332869324403374,3.6360665245406275e-07,34.48133333333333,0.012036980056846091,-4.027778870382785e-06,67.23700000000001,0.4495119575717649,1.4000000000000057,0.00064822934251013
S068,13141.0,13170.984375,N2,-0.008713541666666658,4.080026381300529,-11.25,9.23,20.48,0.73,49.759764513396874,890.625,891.30859375,0.4976986970603355,0.0,0.485179663171856,63.17598391524228,0.036143340309458045,63.229739838148944,0.146875,107,0.17303475000000004,0.0009439984043948411,7.250106133383849e-07,34.48033333333334,0.01277584526449189,1.4895837374089232e-05,67.17633333333333,0.09253768001318288,0.29999999999999716,-9.392363658952727e-05
S068,13171.0,13200.984375,N2,0.0024322916666666785,3.7558906609316938,-8.34,7.25,15.59,0.545,37.41558605239396,890.625,879.8177083333334,0.48619840486049404,0.04564354645876384,0.4768046402149999,63.16908519485051,0.05598195291315239,64.13267497929586,0.06666666666666667,56,0.17368584166666665,0.0010259106767147065,2.576231167597442e-07,34.49666666666667,0.007888106377465585,-4.652779039924561e-06,66.95466666666667,0.2936975012188949,0.960000000000008,-4.4722234353904e-05
S068,13201.0,13230.984375,N2,-0.04500520833333331,4.228234609933505,-8.94,8.14,17.08,0.73,52.251478256413655,859.375,867.7734375,0.4844410797220051,0.03225804701500421,0.45210613421764395,63.166249276397316,0.0451185701216694,63.229739838148944,0.040625,35,0.17402734166666667,0.0009099644269222253,-3.1870082430035464e-07,34.504999999999995,0.014317821063276398,1.0416669492374439e-07,68.43233333333335,0.4736150570053944,1.3800000000000097,0.0007828821568148226
S068,13231.0,13260.984375,N2,0.05509895833333333,4.311063346519886,-9.46,7.69,17.150000000000002,0.935,49.570634188057895,890.625,889.7216796875,0.4706627640891087,0.05589199343873465,0.46558538235632874,63.16488057841014,0.06412109781772884,64.13267497929586,0.07395833333333333,62,0.17431541666666667,0.0010134474709568796,7.386421274528357e-07,34.51733333333333,0.020645150089601914,2.729167407000576e-05,68.752,0.1368064325973,0.5099999999999909,-0.0001368750371297284
S068,13261.0,13290.984375,N2,-0.04373958333333334,4.163680560175475,-8.78,6.76,15.54,0.695,47.47694013462587,906.25,903.5970052083334,0.4928294424798503,0.0,0.45111623709970805,63.18315707635718,0.0340861317152797,63.229739838148944,0.11145833333333334,71,0.17513715,0.0009633381688171634,7.649884887664108e-07,34.55733333333333,0.017499206331209802,2.2986117346495015e-05,67.85133333333333,0.3962300117636489,1.2000000000000028,-0.0007032640796614778
S068,13291.0,13320.984375,N2,0.012781249999999982,3.830868112297147,-9.47,9.08,18.55,0.395,98.53280615674157,890.625,878.3935546875,0.5612486080160912,0.2015537519634788,0.5632864872040396,63.19136243330707,0.21565131368807075,64.35060217278468,0.019791666666666666,9,0.17526516666666667,0.0009301642357968616,-6.139975623908304e-08,34.58733333333335,0.01691810338726649,1.9166671865960137e-05,66.77966666666666,0.16285951683037314,0.5100000000000051,3.2673619974398605e-05
S068,13321.0,13350.984375,N2,0.0023072916666666515,3.5652712232248427,-7.91,7.02,14.93,0.675,40.017519895616,921.875,928.5563151041666,0.3421680772011842,0.0,0.48131312717283004,63.20501901932779,0.023890718129554463,63.229739838148944,0.26979166666666665,127,0.17609750833333332,0.000874431396163943,1.2756535578487297e-07,34.59733333333335,0.013148721948876303,-1.458333728931361e-06,65.53366666666666,0.4664581677087687,1.5499999999999972,-0.0007717710426896251
S068,13351.0,13380.984375,N2,0.01819270833333334,3.3770657280564587,-8.48,6.31,14.79,0.675,25.2643595236833,921.875,925.5859375,0.26339134382131846,0.0,0.4568809849129202,63.20771524854902,0.0189224296617966,63.229739838148944,0.24166666666666667,110,0.17663123333333333,0.0009324993273753848,6.207479982497795e-07,34.607333333333344,0.01339983416149386,1.2916670170536436e-05,64.72433333333333,0.36834479620172317,0.980000000000004,-0.0006360765614356999
S068,13381.0,13410.984375,N2,-0.03135416666666667,3.585214971992517,-9.58,6.7,16.28,0.825,30.175201838423273,906.25,902.734375,0.17677362623014656,0.0,0.42096609910683097,63.20917466903588,0.01541620292501533,63.229739838148944,0.21666666666666667,81,0.17719699999999997,0.0009403699537947742,2.52419339306458e-07,34.60400000000001,0.012806248474864593,2.430556214885864e-06,64.89733333333332,0.1947636744593018,0.9199999999999875,0.00030583341629595743
S068,13411.0,13440.984375,N2,0.029432291666666655,3.3484428191510025,-7.48,6.79,14.27,0.74,38.27078193906138,890.625,892.5618489583334,0.17677362623014656,0.0,0.41480835601783894,63.20895239130543,0.014580592733394966,63.229739838148944,0.20104166666666667,78,0.177207675,0.0008512601361364126,-3.7056715781443915e-07,34.60933333333334,0.015040685563571504,2.9861119211453657e-06,66.059,0.30859196360242336,1.0499999999999972,0.0005110070830639854
S068,13441.0,13470.984375,N2,0.008130208333333333,3.130397604159753,-7.22,5.14,12.36,0.71,52.49463187631578,906.25,915.0960286458334,0.1356408400888169,0.0,0.4046120827409878,63.20957073982421,0.012918481395051447,63.229739838148944,0.196875,84,0.1767273,0.0010836045219543829,4.025365675283633e-07,34.598000000000006,0.01681269361722424,-1.3888892656491827e-05,66.93133333333334,0.16347748740694598,0.5499999999999972,-2.5416673561379627e-05
S068,13471.0,13500.984375,R,-0.013598958333333326,3.424633696287665,-8.33,5.44,13.77,0.68,34.36950870926762,906.25,909.521484375,0.12401959270615269,0.0,0.3388075878684275,63.208038452429804,0.011180168010043425,63.229739838148944,0.125,61,0.176972825,0.0009057408814749317,-7.088869110478651e-08,34.574000000000005,0.014966629547097536,-5.000001356337289e-06,66.53233333333333,0.09153080841382719,0.29000000000000625,-2.1909728165615983e-05
S068,13501.0,13530.984375,R,0.006885416666666662,3.045610945038339,-7.56,4.82,12.379999999999999,0.58,48.263987610469755,921.875,912.0849609375,0.11110243021644485,0.0,0.3903123748998999,63.209570990592134,0.01162692112983027,63.229739838148944,0.18125,107,0.1775813,0.0009047967782878012,-2.1683599632053274e-08,34.56733333333333,0.01436043948569364,-4.166667796951012e-07,65.69566666666668,0.27545941423173226,1.0,2.02430610468393e-05
S068,13531.0,13560.984375,R,-0.025953125000000014,3.1221976314586604,-7.47,5.05,12.52,0.635,29.289702491147953,890.625,888.3056640625,0.07198059875565238,0.0,0.3630921887069453,63.20934882422331,0.009809060162650644,63.229739838148944,0.15416666666666667,96,0.17727172500000002,0.0009398244779611686,-7.505861411094356e-09,34.550333333333334,0.016017351702311833,-8.368057825536211e-06,65.969,0.1178798823661899,0.3200000000000074,0.00017260421348855648
S068,13561.0,13590.984375,R,0.010395833333333337,2.8461173204295895,-6.61,4.52,11.129999999999999,0.64,25.490088335840877,875.0,882.2835286458334,0.09090593428863095,0.0,0.48491904930101476,63.21439085503725,0.012799475911764351,63.229739838148944,0.371875,142,0.17749589999999998,0.0008389218914773794,-3.730691116181365e-07,34.535333333333334,0.013349989596332455,-1.395833711977262e-05,67.09233333333333,0.3991380991865114,1.4499999999999886,0.0006889932424569315
S068,13591.0,13620.984375,R,0.006213541666666667,2.7576905506510254,-7.02,5.36,12.379999999999999,0.51,78.39473318368306,859.375,845.5322265625,0.2603562429900403,0.08538490263051322,0.5018671733857698,63.21352370053846,0.08167840266595157,64.15605972938177,0.0020833333333333333,2,0.17701552499999998,0.0008640157981049802,2.0488221703618958e-07,34.51933333333333,0.016519348924485196,-1.145833644160606e-05,68.23633333333332,0.2810513990160679,0.9299999999999926,0.0004839237423838279
S068,13621.0,13650.984375,R,0.008953125000000015,2.7214096948033015,-6.01,5.32,11.33,0.505,60.41999895399089,906.25,907.6171875,0.14627537173085564,0.0,0.49369285885952296,63.21443992512833,0.014489732311643697,63.229739838148944,0.4010416666666667,157,0.17747454999999998,0.0008408214421028901,4.342279823752081e-07,34.51566666666666,0.017259457954666147,-4.687501271566499e-06,68.66566666666668,0.2491677257502579,0.980000000000004,-7.468752026028254e-05
S068,13651.0,13680.984375,R,-0.016656250000000008,2.3914290023963924,-6.07,4.24,10.31,0.37,44.192458695122646,921.875,933.1298828125,0.21358993356949718,0.0,0.4576593055216463,63.21951434950938,0.01723597529897285,63.229739838148944,0.0,0,0.17768805,0.000980938987654168,-5.743373953823201e-07,34.50566666666666,0.013828312341794526,-7.951391045841677e-06,66.62266666666666,0.7606266422423614,2.549999999999997,-0.0013672225931050871
S068,13681.0,13710.984375,R,0.012416666666666678,2.2453687274526253,-6.0,4.71,10.71,0.43,39.80011056515124,937.5,935.2864583333334,0.11110243021644484,0.0,0.28408104465197176,63.2267488545268,0.010212080739012874,63.229739838148944,0.0,0,0.17701552499999998,0.0010497927649660119,-5.476498881428474e-08,34.47466666666667,0.01647894279241076,-2.270833949336446e-05,64.35833333333333,0.6969652470213673,1.7999999999999972,-0.0011914239343055375
