participant_id,window_start_time,window_end_time,sleep_stage,BVP_mean,BVP_std,BVP_min,BVP_max,BVP_range,BVP_median,SDNN,median_nni,IBI_mean,x_std,y_std,z_std,mag_mean,mag_std,mag_max,movement_density,burst_count,EDA_mean,EDA_std,EDA_trend,TEMP_mean,TEMP_std,TEMP_slope,HR_mean,HR_std,HR_range,HR_trend
S071,10460.0,10489.984375,W,-0.053744791666666694,20.724778431351652,-126.74,103.36,230.1,1.935,48.68481505704322,906.25,888.2893880208334,10.035836611516528,1.9308013120456549,4.3385865593915875,61.48656725949224,2.7630306387379333,108.92199043352082,0.03125,9,0.16552021666666666,0.0010388319336586086,2.082326953756199e-07,34.022999999999996,0.016155494421403332,5.104168051260317e-06,66.47666666666667,1.0162851743263577,3.0900000000000034,-0.0017981254877727562
S071,10490.0,10519.984375,W,0.010916666666666686,17.720359409369276,-80.46,68.02,148.48,0.75,0.0,921.875,921.875,8.49366587676026,3.6142441003156756,7.834451867725549,61.40423631809996,1.9394403464918304,80.51086883148137,0.06354166666666666,23,0.1664702916666667,0.0011449276861868727,9.71309074248339e-07,34.02033333333333,0.017978382080215367,-1.562500423855131e-06,67.09666666666666,1.4634282429358216,4.650000000000006,0.0025690284746713553
S071,10520.0,10549.984375,W,0.030520833333333375,14.063613742547325,-51.42,70.24,121.66,1.205,56.449362005678005,1000.0,989.8193359375,14.65505932737527,25.381866352574043,20.691030560600947,63.2813225350772,4.7679757981277024,134.50278807519194,0.03125,12,0.16555225,0.0012512994395827042,-1.1420029139547824e-06,34.019666666666666,0.02040969268645476,-8.368057825536136e-06,71.15233333333332,1.911206745023211,4.680000000000007,0.0032253133749222456
S071,10550.0,10579.984375,W,0.015968749999999976,9.734802974757978,-22.25,17.57,39.82,0.715,51.20218105931573,968.75,978.6539713541666,0.27049457981322533,0.0,0.10642856726723118,64.27924768448985,0.10793724723584157,65.26101439603893,0.011458333333333333,10,0.165947225,0.0011312982031166647,1.1450608574926338e-06,34.029333333333334,0.019136933459208624,1.7569449210460724e-05,67.35933333333334,2.9813117172740515,9.550000000000004,-0.005241320866243722
S071,10580.0,10609.984375,W,-0.005958333333333317,9.705817983427803,-20.43,18.1,38.53,1.0350000000000001,64.48930386430499,929.6875,956.5511067708334,0.33473014628702524,0.05589199343873463,0.15699820858850588,64.2920524971279,0.15714337366158107,65.34523701081817,0.022916666666666665,20,0.16744171666666666,0.0009778308066270439,7.642302420329458e-07,34.064666666666675,0.019275776393069124,2.069445005817392e-05,61.925999999999995,1.4217022660646403,3.3800000000000026,-0.002419722878614062
S071,10610.0,10639.984375,W,-0.009833333333333286,10.130647369149493,-18.95,18.69,37.64,0.7050000000000001,66.87953610747464,984.375,983.5856119791666,0.2815025871945447,0.1496378730654628,0.15351424449831647,64.29096838533589,0.15319076041720067,65.34523701081817,0.021875,20,0.167932775,0.0008874386313289529,4.973328172018293e-07,34.12766666666667,0.025649344804279946,4.1354177884703675e-05,61.05633333333333,0.22903396157678357,0.8999999999999986,0.0003646181544645599
S071,10640.0,10669.984375,W,-0.012031249999999945,9.900211037263638,-21.05,17.98,39.03,0.675,58.5019694048431,984.375,988.720703125,0.26951602714660383,0.3172537731804339,0.12447371850002001,64.28453369418074,0.12407412465767684,65.31462317123173,0.013541666666666667,12,0.16854120833333333,0.0007682050170780537,5.224198465765659e-08,34.205,0.02825479310370762,4.559029014493499e-05,60.97033333333333,0.407860133978414,1.1799999999999997,-0.0006464237864647879
S071,10670.0,10699.984375,W,0.07265104166666664,9.258553646667933,-21.3,22.62,43.92,0.385,82.30981908249456,1000.0,1005.615234375,0.2772555855564,0.47951074602719335,0.13591255358583407,64.30290590357426,0.14009171785202507,65.31462317123173,0.017708333333333333,16,0.16922418333333333,0.0009665308581324385,8.00331814326124e-07,34.284,0.024846193538111856,3.4097231471688444e-05,59.424666666666674,0.558806665036208,1.6499999999999986,-0.0009739585975365118
S071,10700.0,10729.984375,W,-0.048546875000000066,10.152699980736376,-21.01,19.89,40.900000000000006,0.565,54.54850228461532,1000.0,1010.3190104166666,0.2581652679109945,0.4977978850648122,0.1504622507105649,64.30717555937576,0.15372022950658518,65.31462317123173,0.019791666666666666,17,0.16994979999999996,0.0010963867748199094,-3.241142372271692e-07,34.360666666666674,0.02719477073916053,4.4166678647643965e-05,58.065666666666665,0.13819511166784695,0.3999999999999986,-1.8229171611646122e-05
S071,10730.0,10759.984375,W,-0.038395833333333344,10.101540065627747,-23.97,17.73,41.7,1.225,77.30465252925661,968.75,978.2633463541666,0.5378057512166141,0.5010308384138312,0.2744134369432372,64.34248062831827,0.27458136830846674,66.18912297349165,0.06354166666666666,44,0.16988570833333333,0.0008578236648231148,5.3370023158100934e-08,34.42999999999999,0.025298221281347996,3.833334373192057e-05,59.094,0.5571391208665925,1.8100000000000023,0.0009818752663507118
S071,10760.0,10789.984375,W,-0.024968750000000005,9.82801769279323,-22.28,24.71,46.99,0.9,83.96466479790512,968.75,1000.7161458333334,0.42639553356205157,0.24762544169571915,0.18819028029423363,64.29084980706537,0.18865158015517489,65.31462317123173,0.034375,32,0.17086747499999996,0.0008965500261418773,3.6183972489141813e-07,34.48633333333334,0.017026123718829382,2.4270839917220108e-05,60.678666666666665,0.28069833550549583,0.8000000000000043,1.7777782600309904e-05
S071,10790.0,10819.984375,W,0.005380208333333295,9.583849645216075,-20.54,16.56,37.099999999999994,0.94,75.72663426701652,984.375,980.95703125,0.5339839781200264,0.12401959270615269,0.19328741821874149,64.31700289196762,0.19422236731088643,65.39877674696982,0.036458333333333336,32,0.1713584833333333,0.000952570382205718,8.339416324711408e-07,34.53999999999999,0.020816659994660713,2.6041673730921764e-05,60.596333333333334,0.2755779784783643,0.8299999999999983,0.000319895920110654
S071,10820.0,10849.984375,W,0.02813020833333337,8.487115780068974,-18.69,15.96,34.650000000000006,0.55,105.77162937558265,984.375,977.8401692708334,0.41869817258046665,0.04559597630883184,0.1843455720394595,64.33382317809857,0.18208136226040728,65.39877674696982,0.027083333333333334,24,0.1720843583333333,0.000915536680457901,3.480615093482791e-07,34.59466666666667,0.015216949614017213,2.076389452145459e-05,60.08633333333332,0.1974585751211859,0.6999999999999957,-0.00022267367151521063
S071,10850.0,10879.984375,W,0.06616145833333328,9.315837427968988,-19.16,19.26,38.42,0.725,101.425976081209,953.125,958.5205078125,0.22325713874364692,0.0,0.12447371850002001,64.3303347190848,0.12380063481529666,65.31462317123173,0.013541666666666667,11,0.1725327,0.0009727731030409831,6.966551368964632e-07,34.64166666666666,0.01572330188675931,2.135417245935423e-05,60.07033333333334,0.1798607486053833,0.5999999999999943,0.00011170141918983898
S071,10880.0,10909.984375,W,-0.019963541666666664,9.172556387166782,-18.51,17.79,36.3,0.61,99.28451587894243,968.75,982.5520833333334,0.29080229060690393,0.032258047015004204,0.1286785130556855,64.32821817616895,0.12963260601452273,65.39877674696982,0.013541666666666667,11,0.17353615,0.0008266062711472744,1.3844144380464526e-07,34.68266666666667,0.01842703328144848,2.08333389847399e-05,60.722666666666676,0.42995296900423385,1.1600000000000037,0.0007122224154249172
S071,10910.0,10939.984375,W,-0.0558125,9.93155940708761,-22.07,17.71,39.78,0.42,84.60520669773351,1031.25,1032.71484375,0.26430431482163386,0.05581428468591172,0.1850505514642478,64.32926413215918,0.18241769349318815,65.31462317123173,0.022916666666666665,17,0.17379235,0.0008590556603038042,1.3899743353880042e-08,34.73466666666666,0.016069294390925963,1.9930560962066854e-05,60.45066666666666,0.5783247837984777,1.6700000000000017,-0.0009423613667429931
S071,10940.0,10969.984375,W,0.05131770833333338,7.732450990192443,-19.18,17.65,36.83,0.39,51.20640076109208,1031.25,1020.0358072916666,0.3083034191569871,0.2091235015221601,0.1359125535858341,64.33673383684679,0.13803697597161696,65.3834841531101,0.03229166666666667,27,0.17351480000000002,0.0008421756408255954,7.005470650355577e-08,34.766,0.017435595774162867,1.791667152687582e-05,57.91133333333334,0.8796466462291672,2.729999999999997,-0.0015419448627237576
S071,10970.0,10999.984375,W,0.007109374999999877,8.870962627943511,-17.51,19.47,36.980000000000004,0.67,85.1984228761274,984.375,979.8828125,0.252203827951388,0.15612494995995996,0.10663227798529551,64.32866743319332,0.10529927008934044,65.31462317123173,0.015625,14,0.17416597500000003,0.0010122129343053303,2.693770261981959e-07,34.79133333333334,0.008844332774281306,-4.166667796945335e-07,56.839000000000006,0.18258057581973647,0.509999999999998,-0.00024781256722346127
S071,11000.0,11029.984375,W,-0.011151041666666688,8.827529894579028,-18.94,17.65,36.59,0.345,46.98282908439347,1000.0,1016.1783854166666,0.388171461255633,0.14627537173085564,0.15323125565084084,64.33155996927677,0.1526714970612616,65.31462317123173,0.022916666666666665,19,0.17463567500000005,0.0008185017528234161,4.806531251771732e-07,34.794000000000004,0.012000000000000455,1.069444734549991e-05,58.764,0.9155311755114262,2.8200000000000003,0.0015921532096769787
S071,11030.0,11059.984375,W,0.05783333333333329,9.50714676864492,-19.35,19.58,38.93,0.41000000000000003,74.5553558414524,1093.75,1082.666015625,0.37172178216151575,0.16232629604869594,0.12011279421166313,64.3224953844836,0.1204333000211226,65.3834841531101,0.013541666666666667,13,0.175404275,0.0008640157981049914,4.4117785405215376e-07,34.804,0.010519822558707393,2.2916672883222286e-06,59.39033333333334,0.2212612834536482,0.6799999999999997,-8.052085517601401e-05
S071,11060.0,11089.984375,W,-0.10016145833333331,9.436259870230076,-20.69,18.08,38.769999999999996,0.43,60.91049280552531,1000.0,986.9384765625,0.38628702402560133,0.19982631347136334,0.11557806855349137,64.32362430312642,0.11411913473256578,65.31462317123173,0.013541666666666667,13,0.175895325,0.0008458885088325795,-2.1266607331436522e-07,34.811666666666675,0.0109797793946669,5.659723757520213e-06,57.888333333333335,0.563448213138429,2.0,-0.0010034377721999156
S071,11090.0,11119.984375,W,0.037328125000000004,8.977267244768903,-19.83,17.84,37.67,0.42,130.40986905648685,1250.0,1181.2662760416667,0.23870082026926975,0.4988169597908636,0.15399413205811882,64.36427266341124,0.15741508838542878,65.46754921333164,0.019791666666666666,17,0.17702687499999997,0.0009192284587495133,8.63174062275953e-07,34.82333333333333,0.01247219128924589,-1.0347225029085505e-05,56.086666666666666,0.767760089842885,2.200000000000003,-0.0012718753450182679
S071,11120.0,11149.984375,W,-0.01432291666666666,9.681725604838812,-23.24,18.26,41.5,0.475,89.5402727209397,1000.0,1027.9215494791667,0.24571854664771778,0.4789843403117568,0.2580643761200337,64.35276004598622,0.25897129259262414,67.30527468185537,0.019791666666666666,15,0.17761399999999997,0.0008323762370466884,4.864910173858028e-07,34.82466666666666,0.0099107124982111,6.388890621985265e-06,54.893,0.21785545666794753,0.6700000000000017,-0.00023579867507559596
S071,11150.0,11179.984375,W,0.10543749999999998,9.362243143798059,-18.91,17.42,36.33,0.94,101.58114791910158,1125.0,1043.1315104166667,0.6093660968010574,0.4732137007708274,0.18808935155044443,64.40812630956461,0.19239358401865445,66.37770710110436,0.017708333333333333,13,0.17828651666666662,0.0008639934604626514,-7.588890947507342e-08,34.82899999999999,0.012476644848141595,-7.88194658255765e-06,56.29366666666667,1.056287471393192,2.9000000000000057,0.0018804518989941142
S071,11180.0,11209.984375,N2,-0.12530208333333337,9.10930254330222,-18.7,17.13,35.83,0.375,70.32684132819998,937.5,946.3297526041666,0.36127066453776113,0.46719533856300405,0.14311453746329664,64.37267428468637,0.1494894790499951,65.46754921333164,0.019791666666666666,17,0.1788949,0.0008954920937674464,6.520262185401003e-07,34.83266666666667,0.01093414631123804,4.305556723514991e-06,58.208666666666666,0.908411556264866,2.5899999999999963,0.0015447920857183395
S071,11210.0,11239.984375,N2,0.035848958333333396,8.703984732108033,-18.33,19.26,37.59,0.05,147.65819276925393,1125.0,1165.5192057291667,0.41894688572127553,0.3754496725224597,0.10663227798529551,64.40627260281143,0.11532307809259985,65.46754921333164,0.010416666666666666,10,0.17910837499999996,0.0008954503807442393,-4.769122387457259e-07,34.836000000000006,0.00916515138991239,-5.555557062601921e-07,57.848,1.3798077160725448,3.5700000000000003,-0.0024004173178215375
S071,11240.0,11269.984375,N1,0.051546874999999985,9.100105439687374,-18.3,18.3,36.6,0.685,96.91876444920177,1031.25,1039.3147786458333,0.8569542926680642,0.3482034745981467,0.1667675475941154,64.38421187149768,0.1747951737421636,65.3834841531101,0.026041666666666668,21,0.1787135083333333,0.0007924038006369549,1.0253843927366473e-07,34.83566666666666,0.011160446028522387,7.98611327748164e-07,56.31166666666666,0.6016537394733134,1.5399999999999991,-0.000965521095247692
S071,11270.0,11299.984375,W,0.07421354166666665,9.36768744843055,-20.1,21.27,41.370000000000005,0.03,120.14539158347807,1031.25,1089.0299479166667,0.30063409549650216,0.35189066473914243,0.15988480553719503,64.33088514176193,0.16049468559221858,65.31462317123173,0.023958333333333335,22,0.17898033333333332,0.0008055144974210943,-2.562531077075491e-07,34.832,0.008717797887082221,-5.138890282902602e-06,57.080999999999996,0.890634043813732,3.009999999999998,0.0016029518237174012
S071,11300.0,11329.984375,W,-0.09828124999999996,8.76059521998354,-19.67,17.54,37.21,0.295,93.53041151397187,1031.25,1030.3466796875,0.30099480604138157,0.2699987139887069,0.17748422758562707,64.34234010018078,0.17894254013899547,65.3834841531101,0.030208333333333334,27,0.17963121666666665,0.0008263920597324812,-5.08693714380892e-08,34.821666666666665,0.012671051872497814,-1.4826392910803428e-05,56.35866666666667,1.313610123117036,3.549999999999997,-0.0022440283865094355
S071,11330.0,11359.984375,W,-0.05980729166666667,8.38683658667638,-18.08,18.97,37.05,-0.175,127.48443903324463,1000.0,1002.1647135416666,0.5735706494674876,0.16715748043054754,0.2207841926457196,64.34552365075471,0.22230484363130798,66.40030120413611,0.0375,31,0.17988733333333334,0.001002766068875931,4.37627288852888e-07,34.80466666666667,0.01146976702272425,-9.166669153285362e-06,55.894333333333336,0.9290951990452261,2.3200000000000003,0.001511285132184552
S071,11360.0,11389.984375,W,0.08024999999999999,9.200534378728591,-17.58,17.11,34.69,0.53,66.83231873348585,953.125,962.8092447916666,0.38122011494891855,0.09090593428863095,0.17116012950028855,64.34342077437722,0.16843312652537276,65.31462317123173,0.030208333333333334,27,0.180474175,0.0008963464700521731,4.1021039773502145e-07,34.80133333333333,0.009910712498213887,6.4583350852698585e-06,59.79866666666667,1.8560814158388155,4.919999999999995,0.003182084196528915
S071,11390.0,11419.984375,W,-0.07169270833333335,8.999647203695737,-19.05,18.65,37.7,0.0,68.73036113717461,1046.875,1020.2473958333334,0.32425127430572864,0.045595976308831845,0.1743539662742306,64.34714362754191,0.17471016902695188,65.3834841531101,0.030208333333333334,27,0.18061290833333332,0.0009568106743746177,1.9037266448910994e-07,34.80833333333333,0.014624940645653811,1.3715281498286425e-05,60.638000000000005,0.8193428260909261,2.049999999999997,-0.0013374309183569102
S071,11420.0,11449.984375,N1,-0.03165104166666663,9.003233512483801,-18.95,20.26,39.21,-0.065,85.5221957099372,1015.625,1026.5462239583333,0.3708040718792368,0.07210109366946756,0.15988480553719503,64.34202413503543,0.15736435381783784,65.31462317123173,0.023958333333333335,23,0.18113579999999996,0.0009439023042666993,2.1232731454191116e-07,34.82299999999999,0.01099999999999891,6.21527946377937e-06,59.09733333333334,0.6639022685774034,1.8500000000000014,-0.0011389586422956392
S071,11450.0,11479.984375,W,0.09224479166666667,8.951500491798031,-24.83,27.05,51.879999999999995,0.33,88.58171903479668,1062.5,1023.1038411458334,0.7529448839482801,0.2993047499344662,0.27274764167938587,64.37287647188231,0.268994552204922,65.74952471311104,0.06041666666666667,40,0.181594775,0.0008666495972277293,6.352182712723111e-07,34.837,0.011874342087037887,8.298613362253074e-06,58.403999999999996,0.45895243035998157,1.5700000000000003,0.00043472234014820546
S071,11480.0,11509.984375,W,-0.10606770833333336,7.392589159759854,-19.12,17.16,36.28,0.41500000000000004,101.80722088830105,937.5,937.7766927083334,0.4297818709499299,0.0,0.09090593428863095,64.33961420348916,0.09399900448776176,65.31462317123173,0.008333333333333333,8,0.182171225,0.0009127593189746108,1.3260355159601436e-07,34.84966666666667,0.015807874268503868,-9.201391384924907e-06,59.72133333333333,0.31002938928789014,0.980000000000004,0.00030972230623977395
S071,11510.0,11539.984375,W,0.09206249999999999,8.729389703768554,-16.84,16.37,33.21,0.585,80.80497176962392,984.375,994.0185546875,0.38763298569293897,0.0,0.1541912987078785,64.34198477981066,0.1535510597421418,65.3834841531101,0.01875,13,0.18203244999999998,0.000908567304881697,-3.786290089596909e-07,34.83866666666667,0.009568466729605126,-4.166667796947407e-06,59.43233333333333,0.41825576970185224,1.2000000000000028,0.0001601736545609949
S071,11540.0,11569.984375,W,-0.003552083333333293,9.449691324731406,-25.78,20.57,46.35,-0.03,92.47310671337654,1015.625,1000.0651041666666,0.409933884828463,0.0,0.1592592172022985,64.35710723618547,0.15889679079690905,65.3834841531101,0.026041666666666668,24,0.18305725000000003,0.0008685541074107036,5.487618676111849e-07,34.838666666666676,0.011469767022723548,4.37500118679497e-06,58.523,0.31435807608521893,1.0,-0.0002215625601026912
S071,11570.0,11599.984375,N2,0.023078124999999988,8.965781817446995,-17.63,19.18,36.81,0.46499999999999997,84.69699126074936,968.75,955.712890625,0.4288720165704708,0.0,0.09636964965693297,64.339031697245,0.09916448072691653,65.31462317123173,0.009375,9,0.18349492500000006,0.000818501752823416,7.478061924387468e-08,34.851000000000006,0.015779733838057305,1.0243058334161984e-05,59.830333333333336,0.39059342316816115,1.2000000000000028,0.0005769098787190425
S071,11600.0,11629.984375,N1,-0.05969270833333328,9.127609310684178,-17.38,20.29,37.67,0.030000000000000002,96.73451591126387,1031.25,1031.6243489583333,0.37108927263380825,0.0,0.13981246740425785,64.34449357898141,0.13956861306872803,65.3834841531101,0.017708333333333333,17,0.18394327500000002,0.0007631691813582385,7.088869110478843e-08,34.87733333333333,0.013888444437333367,1.1111114125193678e-05,59.96666666666667,0.19735472856987435,0.6700000000000017,-0.000268888961829687
S071,11630.0,11659.984375,W,-0.11368229166666668,8.80426877601493,-19.05,20.37,39.42,-0.04,59.35585650306602,1015.625,1028.41796875,0.4642375394725803,0.085232270476361,0.18325933639244685,64.3649754931408,0.182381744478319,65.39877674696982,0.03125,25,0.18408205000000002,0.0008132640699674396,5.181824322326493e-07,34.88866666666666,0.011469767022723534,2.7777785312980248e-06,58.652333333333324,0.4508930644349675,1.25,-0.0007465627025180948
S071,11660.0,11689.984375,W,0.11007291666666667,8.228665311408841,-17.33,17.33,34.66,0.32,79.87879271731887,1046.875,1042.5699869791667,0.3895763702586296,0.0,0.11110243021644486,64.34055533876757,0.1128289220730425,65.3834841531101,0.0125,12,0.18413542500000002,0.0009783216722402742,1.954303915555539e-07,34.905333333333324,0.012310790208412104,7.291668644657939e-06,58.882999999999996,0.16411682830634194,0.6099999999999994,0.00015815976512580267
S071,11690.0,11719.984375,W,-0.01171875,8.636395453017332,-16.75,18.7,35.45,0.2,93.76192935350166,1015.625,1011.9466145833334,0.36538453631072026,0.0,0.08507936450096985,64.33310616954985,0.08775293402073986,65.3834841531101,0.007291666666666667,7,0.18431690000000003,0.0009266982194868003,-6.393881942784842e-08,34.91866666666666,0.009910712498213887,9.652780396263552e-06,59.730333333333334,0.3044063439257175,1.0200000000000031,0.00017190976885573104
S071,11720.0,11749.984375,W,-0.04460937500000008,9.277864374273431,-25.78,21.09,46.870000000000005,0.215,97.4772906551246,1000.0,1029.5166015625,0.6027137702831161,0.4125512910031107,0.4048319267163706,64.38450945840988,0.40122744995366216,66.30987860040162,0.10833333333333334,69,0.18513887499999998,0.0009192284587495122,2.3379368321226346e-07,34.93399999999999,0.018903262505012036,1.9305560792525253e-05,59.056666666666665,0.29673033024766576,0.9299999999999997,0.0002537500688341121
S071,11750.0,11779.984375,N2,-0.02659374999999997,9.749393793203808,-19.5,19.64,39.14,0.325,98.73897634481236,1093.75,1109.0738932291667,0.22706421937906074,0.11557806855349138,0.24214885444357023,64.31851306283791,0.2409233326577249,65.31462317123173,0.057291666666666664,46,0.18546979999999996,0.0009867303887080832,7.867254738296124e-07,34.949333333333335,0.013148721948877168,5.763890452443465e-06,57.21133333333333,0.8711667782666853,2.6099999999999994,-0.001524305969050014
S071,11780.0,11809.984375,N1,0.10145312499999996,8.943454789146701,-20.13,20.56,40.69,0.10500000000000001,172.54804190230234,1062.5,1129.3375651041667,0.2539958442354695,0.0,0.19249988726547926,64.30435186705964,0.1918053459107949,65.31462317123173,0.03854166666666667,35,0.1863665,0.0008268819444152862,2.4241152409166864e-07,34.96933333333334,0.015040685563570915,1.5486115311988426e-05,55.582333333333324,0.3135568351812623,1.1099999999999994,-0.0004491320662793156
S071,11810.0,11839.984375,N1,0.02323958333333332,9.147873530504224,-19.03,19.62,38.650000000000006,0.195,105.6466941324505,984.375,1052.2542317708333,0.19569753713745777,0.032258047015004204,0.194978186101819,64.30545599484161,0.1936387413655625,65.26101439603893,0.03958333333333333,36,0.18633447499999997,0.0008095423394579214,2.843887490203865e-07,34.978,0.009797958971134243,-4.583334576643126e-06,56.44233333333333,0.4405427208442883,1.279999999999994,0.000593784883296679
S071,11840.0,11869.984375,W,0.04401562500000001,8.910695502793587,-18.66,18.39,37.05,0.045,110.07826549484064,1062.5,1084.912109375,0.22345146129653204,0.0,0.18742764807756854,64.30216774666228,0.18533235040790283,65.26101439603893,0.036458333333333336,34,0.18666539999999998,0.0008550668336451864,2.1127609897897848e-08,34.97000000000001,0.012649110640673249,-6.944446328247653e-07,55.45633333333333,0.5811567965895456,2.1400000000000006,-0.0009822572108987662
S071,11870.0,11899.984375,N1,-0.016656250000000008,7.94074300985132,-18.16,16.79,34.95,-0.01,140.6463830491021,984.375,1069.5393880208333,0.2904270532575932,0.0,0.1592592172022985,64.2919106197829,0.1588359463391161,65.26101439603893,0.026041666666666668,25,0.1872098166666666,0.0009642001519682303,4.951242662554993e-07,34.95666666666667,0.012995725793077612,-1.4861115142445592e-05,52.16166666666666,0.875439254825193,2.8700000000000045,-0.000800937717268261
S071,11900.0,11929.984375,W,-0.09547916666666663,8.858926964249074,-19.1,21.0,40.1,0.07,156.67124422805617,968.75,1007.3974609375,0.20385818532063463,0.0,0.17950549357115012,64.29908489577943,0.1784607296239133,65.26101439603893,0.03333333333333333,32,0.1876902,0.000756645927762781,-3.836329165670796e-08,34.935333333333325,0.014544949486183227,-1.6250004408098353e-05,54.022000000000006,0.36252264297098236,1.4299999999999997,0.0003251389770884802
S071,11930.0,11959.984375,W,0.01723958333333323,8.959449212568806,-17.61,19.77,37.379999999999995,0.43,145.43530232724834,1046.875,1074.7721354166667,0.21888884482515067,0.0,0.17677362623014653,64.29770763002095,0.1755995188320044,65.26101439603893,0.03229166666666667,29,0.1876475,0.0007208589667889273,-1.9848833509340579e-07,34.91199999999999,0.0119443152447794,-5.486112599315108e-06,56.27400000000001,0.8395220862689281,2.769999999999996,0.0009144446925034428
S071,11960.0,11989.984375,N2,-0.021130208333333345,8.924273005155422,-17.46,18.75,36.21,0.17,108.69276135972669,906.25,974.2513020833334,0.22821773229381923,0.0,0.17950549357115012,64.29868016933175,0.17835867043415513,65.26101439603893,0.03333333333333333,30,0.18775424166666668,0.000929360371400972,4.22788743161004e-08,34.897999999999996,0.01599999999999942,-1.2500003390842568e-05,54.63733333333334,0.6253262259724038,1.980000000000004,0.00017486115854523614
S071,11990.0,12019.984375,N1,0.06320833333333328,9.095125257883875,-19.56,19.12,38.68,0.36,71.34043568388066,1078.125,1038.7288411458333,0.23717082451262844,0.0,0.2162430755153407,64.31219807519382,0.21537657805125077,65.26101439603893,0.04791666666666667,41,0.18815990000000002,0.0008966999999999944,5.148464938277127e-07,34.87,0.014142135623730144,-8.402780057178397e-06,55.278666666666666,0.21021787639388662,0.7199999999999989,-0.0002525000684950263
S071,12020.0,12049.984375,W,0.0013593750000000144,9.057149327097882,-19.11,18.71,37.82,0.21,81.8780200585685,1015.625,1031.689453125,0.29927574613092556,0.04564354645876384,0.2163459164291195,64.29879139500262,0.21604430549702205,66.25707509390978,0.0375,31,0.18894982500000002,0.0008747382147677009,9.062350548597592e-08,34.85566666666668,0.018917951498214902,-1.7187504662406648e-05,57.07366666666667,0.4608143757402639,1.6500000000000057,0.0006398960069162348
S071,12050.0,12079.984375,N1,-0.06332812500000001,8.643742463038448,-17.22,17.33,34.55,0.41000000000000003,160.05551527444237,1046.875,1120.41015625,0.21650384507106463,0.0,0.1798798789007079,64.29661362055948,0.17870439787581538,65.26101439603893,0.03229166666666667,30,0.18878972500000002,0.0006877716186169544,4.0865245460407125e-08,34.84833333333334,0.016947631758512886,-9.062502458360828e-06,55.428000000000004,0.625504596306054,2.3799999999999955,-0.00047076401659180056
S071,12080.0,12109.984375,N1,0.11091666666666672,8.90790583398939,-18.64,18.62,37.260000000000005,0.165,181.71557977560042,1164.0625,1154.2073567708333,0.20385818532063463,0.0,0.1953895681282226,64.30226483119874,0.19361709217904305,65.26101439603893,0.03854166666666667,33,0.18882172500000002,0.0007317718560965465,1.1284790387584101e-07,34.833,0.004582575694958184,-1.7708338137036546e-06,54.01566666666666,1.0099395471457138,3.049999999999997,-0.001742326861525299
S071,12110.0,12139.984375,W,-0.053593750000000065,9.277814162108854,-18.53,20.21,38.74,-0.195,143.0231577977686,1015.625,1081.4208984375,6.609648011172548,6.028875738056852,4.757214915262921,64.30085417539293,2.11742429573981,82.70429251254133,0.020833333333333332,7,0.1898568916666667,0.0009704534747205636,2.2704151124172748e-07,34.82966666666667,0.013287420951996231,-7.534724266145393e-06,54.288333333333334,0.7696582935880638,2.700000000000003,0.0007862849355156618
S071,12140.0,12169.984375,N1,-0.05861458333333337,12.102846499609944,-45.45,39.63,85.08000000000001,0.715,156.54449155429998,1343.75,1247.8434244791667,22.546262600445864,12.130896153749548,14.619877983357584,64.00218537969143,4.908480751747785,128.53404218338423,0.04895833333333333,29,0.1887790416666667,0.0007611280378034568,-5.8353531454407865e-08,34.81933333333333,0.012364824660659602,-1.2777781243971467e-05,56.67933333333333,2.224863940908648,6.5,0.003957431629077591
S071,12170.0,12199.984375,W,0.0430729166666666,7.746569377452393,-20.51,35.72,56.230000000000004,0.6,123.65567740996897,1015.625,1034.8307291666667,2.708416465070298,0.3488012706239599,0.6566136558552187,64.53600858812747,0.5462482767043096,68.79680225126747,0.019791666666666666,8,0.188127875,0.0008196147932870618,-5.04560683745841e-07,34.80466666666667,0.013597385369581121,-1.125000305175946e-05,60.91466666666667,0.5107428141660162,1.3699999999999974,0.000905416912276722
S071,12200.0,12229.984375,N1,-0.06672395833333337,6.954045708468392,-14.18,13.73,27.91,0.07,112.89177688310161,984.375,1028.5400390625,0.4705935967831833,0.1428261375083551,0.03225804701500421,64.53860807665379,0.10380684665262953,64.83054835492293,0.021875,19,0.188085175,0.000843189862590267,1.1592385957135691e-07,34.775333333333336,0.014544949486180273,-1.7361115820614172e-05,60.693333333333335,0.8850097300155644,2.75,-0.001567708758601551
S071,12230.0,12259.984375,N2,0.11121354166666665,6.271693520977139,-12.97,15.31,28.28,0.28500000000000003,205.23342472949213,1296.875,1227.9378255208333,0.2232571387436469,0.4535689874637472,0.06441510347391796,64.6157808592746,0.08434421261392425,64.88451279003334,0.01875,16,0.18788235,0.0007575490264662728,7.728257304757493e-08,34.75599999999999,0.013808210118140228,-6.319446158704692e-06,56.30133333333333,1.8315216503103524,5.029999999999994,-0.003160070301668378
S071,12260.0,12289.984375,W,0.0010833333333333103,6.60947949076846,-15.61,16.95,32.56,-0.30500000000000005,144.220460436372,906.25,875.4720052083334,0.2036025369575624,0.47920176501889283,0.07880950133074056,64.63238209214532,0.07890983207212085,64.88451279003334,0.008333333333333333,7,0.18751939166666665,0.0008966571464410972,1.573500860867216e-07,34.75666666666666,0.01074967699773308,3.3333342375586368e-06,54.84900000000001,0.23000507240783472,0.7100000000000009,-0.00033156258994210914
S071,12290.0,12319.984375,N2,0.01367708333333333,15.336959071549726,-88.47,50.68,139.15,1.005,81.67440961604866,1328.125,1318.9127604166667,18.83156322341563,17.087129151466286,12.57968973186541,64.55782357441346,5.403116261464947,115.62006746235707,0.07395833333333333,36,0.18724184166666666,0.0010325253991697045,-2.6132494068059345e-07,34.74133333333334,0.014313940369057645,2.1527783617566436e-06,60.121,5.315463197125911,14.860000000000007,0.009335384476829559
S071,12320.0,12349.984375,W,-0.14791666666666667,9.447903996683896,-23.19,18.96,42.150000000000006,0.49,139.04552856209503,1031.25,1097.998046875,15.16872682322086,17.16141189295689,9.939986531593686,64.30604784171598,3.6052511672467147,88.95504482602435,0.04583333333333333,18,0.18766885,0.000920529210563141,-3.992006291234363e-07,34.732,0.016613247725836236,-2.1597228080845358e-05,68.865,0.6340754424093921,2.1999999999999886,-0.00021288200219238442
S071,12350.0,12379.984375,W,0.09980208333333333,24.4142121596724,-181.66,94.8,276.46,-0.63,0.0,1265.625,1265.625,21.161695507941545,18.105276595003936,21.50829516878798,66.05205167030704,11.638272501095484,160.90680532531866,0.090625,31,0.18696427499999999,0.0013118656559934028,-1.3170858607546e-07,34.684999999999995,0.017078251276600023,-1.954861641401347e-05,70.59466666666665,1.9312271285952411,6.310000000000002,-0.0028618757763334886
S071,12380.0,12409.984375,W,0.011010416666666667,7.963308143179242,-19.82,15.56,35.38,0.975,123.93176972242641,1109.375,1113.1022135416667,0.3095625834230545,0.17116012950028858,0.4332081149209157,64.13164058210403,0.4212694084447176,68.17624219623724,0.07083333333333333,35,0.18728454999999997,0.0008779497978244566,-1.4844925901943863e-07,34.64766666666666,0.01145522685162411,-1.4479170594390183e-05,68.60766666666667,0.6798758873663804,2.4200000000000017,0.0001344792031464856
S071,12410.0,12439.984375,N1,-0.016677083333333332,9.141093285719428,-18.09,17.37,35.46,0.645,132.42845146980588,1062.5,1095.9798177083333,0.22465009443700565,0.211137379579163,0.2856522750167102,64.11373250127782,0.26444234643903114,67.58698099486321,0.04479166666666667,32,0.18845879166666668,0.0008740244075141965,8.200590332191337e-07,34.60333333333334,0.018856180831641197,-2.194445039725673e-05,62.87033333333333,2.450917492604668,8.519999999999996,-0.004412674808125761
S071,12440.0,12469.984375,N1,0.004489583333333317,8.298314277227725,-19.45,16.97,36.42,0.44999999999999996,136.60830344783486,1296.875,1252.7018229166667,0.6453753416402134,0.5469454319724734,0.21865077114481493,64.2436908528513,0.21712654513562582,65.71149062378664,0.06979166666666667,36,0.1894727666666667,0.0009520886665058446,2.9035988779293854e-07,34.570666666666675,0.02031966753883933,-2.6875007290314554e-05,54.823,1.6559189794995008,5.880000000000003,-0.0029626744147879815
S071,12470.0,12499.984375,W,-0.09361458333333333,8.226069937843182,-19.63,16.79,36.42,0.6,68.6665326922693,906.25,933.6100260416666,0.2769168516149448,0.1286785130556855,0.12489144591960208,64.24590673114099,0.1327966874569801,65.19202405202648,0.07291666666666667,44,0.1904010916666667,0.0010007768815261599,5.913206899198923e-07,34.54933333333334,0.01209223809814432,-6.319446158704372e-06,53.913333333333334,0.9086925895055058,2.559999999999995,0.0015146531886537494
S071,12500.0,12529.984375,N2,0.11560416666666659,9.030842012098464,-17.35,17.47,34.82,0.845,125.09551743363087,1093.75,1093.8802083333333,0.17714153455327436,0.05589199343873463,0.09654963281764578,64.24091024473353,0.10324369919551014,65.19202405202648,0.03958333333333333,31,0.19153225000000001,0.0008894444825282831,4.7588337561940683e-07,34.52766666666666,0.017259457954665384,-1.149305867324652e-05,55.33500000000001,1.0517501287536568,2.950000000000003,0.0017246879678515542
S071,12530.0,12559.984375,N1,-0.08117187500000003,8.697074641776144,-19.29,17.53,36.82,0.21,144.56338954684287,1187.5,1194.7021484375,0.16567085319156843,0.10663227798529551,0.09090593428863096,64.24025760002665,0.10068175380871708,65.4446330878247,0.03333333333333333,25,0.192781175,0.000935449220628786,3.2330803041125064e-07,34.53166666666666,0.013437096247163252,-8.680557910312034e-07,54.797999999999995,1.79199218748297,4.899999999999999,-0.0031886119760774676
S071,12560.0,12589.984375,W,0.012395833333333295,9.59543645272668,-20.85,17.75,38.6,0.715,158.10123946101945,1109.375,1084.4482421875,0.19741988090108856,0.12801909579781015,0.17598926734952397,64.25151489348973,0.177131471891272,66.15889962809237,0.052083333333333336,43,0.19358180000000003,0.0009774476763489716,6.738595577961063e-07,34.538,0.009797958971130763,5.8333349157255416e-06,54.443999999999996,0.8193477080377214,2.6700000000000017,0.0010539586192379066
S071,12590.0,12619.984375,N2,0.08423958333333331,9.466267339264888,-20.82,18.92,39.74,0.305,116.41646190344049,1140.625,1100.4069010416667,0.1462753717308556,0.16232629604869594,0.13274201561048155,64.2389299519637,0.13495169519081082,65.4446330878247,0.034375,27,0.19491617499999997,0.000945144509784089,6.396661891455614e-07,34.550666666666665,0.01209223809814457,3.263889774275499e-06,54.46733333333334,0.8284762452170178,2.239999999999995,0.0013911114884742521
S071,12620.0,12649.984375,N2,0.03946874999999997,11.007622332060336,-28.41,60.71,89.12,0.08,164.34070371996242,1250.0,1180.7861328125,5.916572769207976,4.159274693047121,3.36730975061654,64.50897523596193,2.6238944985240984,97.94896630388705,0.03125,14,0.19555667499999999,0.0007785434922822259,5.512638214148839e-07,34.56933333333334,0.01749920633121057,1.520833745886054e-05,55.659666666666666,1.685505825824666,5.600000000000001,0.002488715952885186
S071,12650.0,12679.984375,N2,-0.05715624999999997,9.476563598807989,-19.37,19.41,38.78,0.385,100.18209197081735,984.375,1018.0989583333334,0.5329262769527008,0.18782090594056175,0.4229525846816507,64.59357507096867,0.4136438296420084,65.06150935845248,0.00625,3,0.19681631666666669,0.0009280728597774813,5.573790574487457e-07,34.61000000000001,0.017888543819997937,2.6805562827029338e-05,60.02766666666666,0.20320241687101653,0.9299999999999997,0.00021156255739001657
S071,12680.0,12709.984375,N2,0.02955208333333325,8.039805249208714,-17.71,17.67,35.38,0.15,197.9256504094568,1093.75,1065.0390625,0.4002481326731373,0.3550173606866133,0.39197129111142254,64.6053596086727,0.37998004431898724,64.96922348312314,0.0,0,0.19768099166666667,0.0007988215851681405,2.968739954627787e-07,34.647,0.010999999999997812,1.3368059181871031e-05,58.16800000000001,2.265382086977824,5.82,-0.0038779177186191727
S071,12710.0,12739.984375,N1,-0.07069791666666667,8.087375162122276,-16.88,18.46,35.34,0.13,222.255927814604,890.625,930.2734375,0.40138513430577705,0.42746299181917496,0.3726779962499649,64.62999106070215,0.36469918228434445,65.30696746902278,0.0010416666666666667,1,0.19850274999999998,0.0009124239899849122,6.082488629147275e-07,34.676,0.01496662954709709,1.1111114125194888e-05,55.25966666666667,0.3860870655981913,1.3299999999999983,0.00015142365218740608
S071,12740.0,12769.984375,N2,0.005729166666666682,8.315604206699755,-17.99,16.32,34.31,0.64,192.36023883950796,1000.0,1061.4420572916667,0.2200827456448041,0.4992659542323666,0.36985914877228,64.63224370602863,0.35961580126740406,64.96922348312314,0.0,0,0.19944180833333336,0.001173645213965402,6.955355619399861e-07,34.709333333333326,0.016918103387265127,1.7222226894048812e-05,54.199333333333335,0.6932865368822781,1.9099999999999966,0.0009472224791727651
S071,12770.0,12799.984375,N2,0.06458854166666662,7.929715529094893,-18.32,18.67,36.99,0.43,154.65953501340312,1234.375,1241.8619791666667,0.5312459150169743,0.4623122742139655,0.336571188503347,64.6736444932132,0.3193738125445954,67.1863081289633,0.003125,1,0.20021005833333336,0.0008872812809911113,3.7323556131607147e-07,34.72333333333333,0.011925695879997564,2.08333389847321e-06,52.555000000000014,1.2403460538629265,3.450000000000003,-0.0021707297555147993
S071,12800.0,12829.984375,N2,-0.02185937499999991,7.951056620756427,-17.46,17.11,34.57,0.01,86.8873122598118,1078.125,1041.7561848958333,0.45210613421764395,0.3249933225809758,0.23632521950693286,64.71866569863397,0.23834887970628701,64.82283548256741,0.0,0,0.20082913333333335,0.0008415437989525918,5.056485746659561e-07,34.74933333333333,0.014126413400279609,1.423611497290606e-05,52.799666666666674,0.457132244420462,1.8500000000000014,-5.739584890295405e-05
S071,12830.0,12859.984375,N2,0.05617708333333334,7.886957308977999,-16.26,19.86,36.120000000000005,0.31,154.56488766599708,1031.25,1026.0335286458333,0.4996863165332382,0.2732186624299299,0.2530285309999645,64.68131362314507,0.2532317469834429,64.82283548256741,0.0,0,0.201661775,0.0007720763397326743,3.697331732132099e-08,34.768,0.0119443152447794,1.2152781074430851e-05,53.148333333333326,1.512772473161631,4.43,0.002281771452303455
S071,12860.0,12889.984375,N2,-0.06933333333333323,8.16272506538445,-18.46,22.83,41.29,-0.32,145.10986711268404,1093.75,1175.7486979166667,0.6488763993221068,0.3374742788552764,0.33322752226852786,64.67294388250731,0.33215895300330983,66.88049042882386,0.016666666666666666,10,0.20207809999999995,0.0008389218914773903,3.4693759411284646e-07,34.79666666666667,0.01577621275493217,1.2638892317408497e-05,56.172333333333334,0.4859059122459367,1.5800000000000054,-0.0005557293174178932
S071,12890.0,12919.984375,W,-0.06462500000000002,7.219038072534895,-14.71,15.86,30.57,0.09,98.62464694728278,968.75,1024.7314453125,0.8537498983243798,0.7463096419028916,0.41167715700196705,64.66286580766239,0.39162338232007243,69.01449123191448,0.021875,10,0.20272927499999993,0.0007201472414548317,2.91616615564404e-07,34.827,0.011298967504452088,1.2951392402179953e-05,55.89033333333334,0.6280736864059471,1.990000000000002,-0.0002560070138907916
S071,12920.0,12949.984375,W,0.06014583333333346,28.17399425296727,-109.91,118.43,228.34,-0.51,154.92033704972297,1031.25,923.2503255208334,19.275659305628604,18.43305160555505,17.08596321220694,63.661869521452736,9.654215091530162,138.01811475310043,0.06458333333333334,33,0.20235564999999997,0.001280822070976295,-5.042826888787675e-07,34.86466666666667,0.018571184369577512,2.3611117516035333e-05,58.620333333333335,3.950148928275434,12.43,0.006949619940760618
S071,12950.0,12979.984375,W,-0.043895833333333335,6.893161188935691,-21.16,12.58,33.74,1.07,39.74016141658502,750.0,757.7473958333334,0.5602578771323871,0.4977978850648122,0.47527290223325613,62.1399512804658,0.39448894535032963,63.53739056650029,0.06354166666666666,56,0.20292142499999993,0.0007872767266819236,5.865691695337393e-08,34.90599999999999,0.01890326250501068,2.2222228250387234e-05,73.63533333333334,3.9171543526164783,12.930000000000007,0.007055904691814424
S071,12980.0,13009.984375,W,-0.012104166666666687,7.4650596496265615,-17.86,12.44,30.299999999999997,1.205,68.80535584800108,781.25,801.6845703125,1.9285745919194368,0.49327068859017176,0.6585936985139034,62.14549604008388,0.4267476989831592,63.76519426771944,0.14791666666666667,92,0.20340179999999997,0.0008997448304936262,6.260444406587588e-07,34.934,0.014047538337139181,1.4861115142448922e-05,79.75666666666666,1.5184275492173542,5.3799999999999955,-0.002494028454326294
S071,13010.0,13039.984375,N1,0.08301041666666667,8.958277416486098,-22.14,14.5,36.64,1.29,106.40640434295021,921.875,934.5458984375,1.0772183184274,0.13635890143294643,0.5533358433678011,62.370861989023204,0.368770135568942,64.19501538281614,0.14375,107,0.20430916666666665,0.0010058409941713234,2.921641417545944e-07,34.94466666666667,0.012578641509409341,5.4166681360321675e-06,72.62633333333333,2.118997378216615,7.25,-0.0038151746460434693
S071,13040.0,13069.984375,W,0.02843750000000001,18.430552017309747,-91.32,70.02,161.33999999999997,1.17,86.43669217592546,921.875,970.7763671875,23.893412039490904,12.206413342694418,23.185169095182857,63.37041847188337,9.378580437982897,145.2824834589497,0.08645833333333333,41,0.203839475,0.001262676977447123,-4.1671430574932354e-07,34.955333333333336,0.011469767022722266,1.0277780565802737e-05,66.59966666666666,1.1613454362170728,3.950000000000003,-0.001400729546638875
S071,13070.0,13099.984375,W,0.004822916666666566,10.572689841732558,-27.9,27.58,55.48,1.375,103.28217291022855,1078.125,1022.119140625,0.963702689248032,0.5243671781299818,0.4506890943014067,62.275646740016846,0.3940576683208813,63.75735251718032,0.11458333333333333,80,0.2048109,0.0009413389081515691,4.331160029068996e-07,34.95333333333333,0.012736648783027738,-7.291668644658455e-06,67.10466666666666,0.5423020888356939,1.9000000000000057,-0.0007196529729961402
S071,13100.0,13129.984375,N1,-0.06378645833333338,10.522144584271622,-27.3,17.24,44.54,1.1150000000000002,116.21872306837778,1078.125,1054.150390625,0.6744854005503422,0.5011694223818484,0.5376201012461205,62.19140315249591,0.4356496188315857,64.25729530566937,0.07395833333333333,57,0.20553680000000002,0.0007919670195153233,2.3573964728180197e-07,34.936,0.01645195023900568,-2.0347227741763734e-05,64.395,1.208985111570859,4.190000000000005,-0.0020271880499099547
S071,13130.0,13159.984375,N2,-0.07452604166666664,11.750048221725027,-27.54,19.65,47.19,1.36,110.94907482338908,1046.875,1064.8274739583333,0.6114645442614715,0.5034764128178091,0.5071708018234313,62.22709702675161,0.38440944738652794,63.28506932918696,0.08020833333333334,59,0.20654025000000004,0.0008944095748033972,3.5305348118854935e-07,34.90399999999999,0.014742229591663273,-1.6458337797941475e-05,58.50166666666667,1.5334103241540473,4.75,-0.002662188222164772
S071,13160.0,13189.984375,N1,0.11912500000000001,11.788435698324934,-28.32,23.04,51.36,1.4649999999999999,177.30171930432508,1203.125,1177.5472005208333,0.6717829394293467,0.5014518850852547,0.5339910901644334,62.22755677823544,0.42564939972185994,64.93843238021688,0.08333333333333333,62,0.20765045000000001,0.0007789093320149683,5.454259292062543e-07,34.876999999999995,0.022383029285598405,-2.656250720554029e-05,57.07600000000001,0.49392037145002826,1.3700000000000045,-0.0007776390998369967
S071,13190.0,13219.984375,N1,-0.004567708333333383,11.622567318072367,-25.27,18.58,43.849999999999994,0.815,145.80751621969185,1125.0,1133.8134765625,0.734751676446993,0.41125522413095256,0.5517491126710884,62.207511155264704,0.36305077828994287,63.8200595424354,0.041666666666666664,34,0.20860036666666665,0.0009960517383929219,6.672102504368103e-07,34.84966666666667,0.01974560429282521,-1.4062503814698707e-05,56.35433333333333,0.2727353214300555,1.1300000000000026,0.00028864591163354754
S071,13220.0,13249.984375,N2,0.02776041666666664,12.933345499815577,-28.18,22.68,50.86,0.815,145.44142241835854,1015.625,1090.3971354166667,0.5742966335125854,0.3630921887069453,0.5029330206537337,62.18872289332555,0.34796297288662154,63.071388124885914,0.08229166666666667,51,0.2094966833333333,0.0009890230531803736,7.311282365256739e-07,34.828,0.013759844960367498,-4.236112260229262e-06,65.06066666666666,3.9683984454969012,11.909999999999997,0.006943265772370272
S071,13250.0,13279.984375,N2,-0.14615625000000002,12.628313913936385,-28.38,22.51,50.89,0.745,137.7659044813222,1156.25,1102.0100911458333,0.7074473625884355,0.5038383486766586,0.49434299833212964,62.16021398274507,0.4359923004022767,63.623894882347464,0.08125,61,0.21059581666666669,0.0008363286632990407,5.219233186640963e-07,34.81733333333333,0.012092238098143367,-1.4583337289314352e-06,74.059,5.4251982145048565,15.760000000000005,0.009442051172431416
S071,13280.0,13309.984375,N1,0.1350260416666666,12.109396506404513,-30.29,23.36,53.65,1.0,145.33519476499063,1046.875,1062.7034505208333,0.7116946898756673,0.4756391898160715,0.5043205257654435,62.22676832434283,0.3980836284376766,63.623894882347464,0.08645833333333333,61,0.21158852499999997,0.0010099588107319046,4.044825315979103e-07,34.80833333333333,0.014624940645653813,-1.4270837204546197e-05,87.69066666666666,2.5830807618466407,10.030000000000001,0.004438542870698476
S071,13310.0,13339.984375,N1,-0.06030208333333338,12.065867876662624,-26.26,23.35,49.61,0.495,151.14191148797732,984.375,1027.8401692708333,0.69819956952786,0.4568809849129202,0.5717972017512464,62.11862902816142,0.43167618457302565,64.19501538281614,0.06979166666666667,54,0.212314425,0.0008101052057449109,6.046388358937835e-07,34.80466666666668,0.012578641509409341,7.222224181375886e-06,102.48566666666666,2.5387525589461353,9.179999999999993,0.0031658689143524614
S071,13340.0,13369.984375,N2,0.012354166666666578,12.75447487973924,-26.63,21.95,48.58,0.755,146.68612928110807,1015.625,1058.0485026041667,0.54776118674869,0.24578919095210205,0.4995994489338434,62.21542591490082,0.3552392069494917,63.58458932791813,0.04583333333333333,34,0.213168425,0.000885381694172068,4.3228201830566964e-07,34.79533333333334,0.01359738536958112,-6.944446328241242e-07,94.05566666666667,5.7986393135708045,19.110000000000014,-0.010433162552398697
S071,13370.0,13399.984375,N2,-0.12072395833333333,12.02382274845654,-26.27,20.83,47.099999999999994,1.105,210.04291852106172,1000.0,1103.8655598958333,2.261918423948402,0.4585416193396916,0.7228296057086269,62.12757341714658,0.5052190584901981,68.38128398911503,0.11041666666666666,67,0.21396905000000002,0.0008882729014779123,4.7147929456360595e-07,34.789333333333346,0.013148721948876965,-2.0833338984734074e-07,71.32266666666668,5.521243177240269,19.93999999999999,-0.009846669337746672
S071,13400.0,13429.984375,N1,0.17356770833333326,12.270171824158531,-28.98,27.09,56.07,1.2650000000000001,193.07006702115834,1296.875,1207.8450520833333,0.9682458365518543,0.4618050334165803,0.5480305252421822,62.14493276759981,0.41084016823170894,63.89053137985315,0.16666666666666666,92,0.2148337166666667,0.0009494382741331179,6.730019186745612e-07,34.785333333333334,0.013349989596332431,-7.291668644657371e-06,59.135666666666665,1.1064166886344804,4.189999999999998,-0.0017479518630511774
S071,13430.0,13459.984375,N2,-0.1904635416666667,13.42069160940346,-33.55,23.34,56.89,1.0950000000000002,97.30062165799549,1109.375,1116.7887369791667,0.4839334905375829,0.24578919095210208,0.4621009915471821,62.124510224474534,0.3541718544595988,63.2771680782255,0.3125,155,0.2157624333333334,0.0008726678514124898,2.713121395703492e-07,34.782666666666664,0.014126413400277173,1.1805558758015974e-06,58.76199999999999,1.2084960350231464,4.019999999999996,-0.0018979171815096511
S071,13460.0,13489.984375,N2,0.04189583333333327,13.582272355659637,-29.08,23.4,52.48,1.1549999999999998,175.22942456528915,1046.875,1095.7763671875,0.8206958429690421,0.43299265454380276,0.554276304943863,62.17078640614295,0.4025762558208525,64.83054835492293,0.23645833333333333,130,0.2164563166666667,0.0008981364037395587,7.330613967722999e-07,34.787333333333336,0.01526069752301245,9.722224859544519e-06,60.543,2.2563305756618792,6.979999999999997,0.0038456607654244706
S071,13490.0,13519.984375,N2,-0.03605729166666668,13.053245773994337,-36.29,26.28,62.57,0.855,129.10040417085997,1187.5,1153.7272135416667,0.8135349978386506,0.4618050334165803,0.5121399480502268,62.19257606129863,0.3888331170545853,64.04685784642366,0.21979166666666666,124,0.21704343333333334,0.0009184754917192371,2.9631692065888786e-07,34.797333333333334,0.014126413400278346,-2.2916672883219076e-06,60.669333333333334,0.993555679813109,3.0500000000000043,-0.001099028075908223
S071,13520.0,13549.984375,N2,0.01489583333333339,12.679100708678671,-30.65,24.76,55.41,0.98,136.54532899039683,1187.5,1149.8942057291667,0.8626352299382142,0.3579394637675793,0.5760623866074653,62.18679167769038,0.39107650854901455,64.66065264130884,0.25833333333333336,139,0.21757704166666664,0.0008579915830573321,3.1237313161163605e-07,34.79466666666667,0.009910712498213297,4.097223333665651e-06,58.51066666666667,1.8573600141658648,6.170000000000002,-0.003170417526697462
S071,13550.0,13579.984375,N2,0.14160937499999993,12.971532856586204,-27.63,21.95,49.58,1.0150000000000001,122.34734081868297,984.375,1033.8704427083333,0.6116623736793035,0.1592592172022985,0.4548923865414031,62.17111009498323,0.3210444789665512,63.071388124885914,0.24479166666666666,128,0.21820662499999996,0.0007165169114368502,4.297872259622478e-07,34.80133333333334,0.015216949614017834,9.652780396261998e-06,62.784666666666666,2.1715520307425797,7.170000000000002,0.0028408341039589053
S071,13580.0,13609.984375,N2,-0.15427604166666672,12.5954073019051,-32.8,23.62,56.42,0.67,60.73293175866404,953.125,964.9169921875,0.8731726951500234,0.3899104575803983,0.5800465438700204,62.2229598473621,0.4259023756258989,64.5832795698701,0.2375,132,0.21862273333333332,0.0008425764429547186,2.3515284156706926e-07,34.809333333333335,0.01314872194887717,9.027780226712922e-07,63.01533333333334,0.6122729964829601,2.059999999999995,0.001027847501043702
S071,13610.0,13639.984375,N1,0.04980729166666665,12.558945895022937,-27.17,33.03,60.2,1.2650000000000001,97.56600512276064,1046.875,1009.8470052083334,3.5083178691266466,0.7027939035260148,1.8813708317599753,62.25265884509283,0.561997968399851,66.0,0.12395833333333334,86,0.21915627499999996,0.001011124448015675,3.4635100541205725e-07,34.81666666666667,0.013984117975600481,7.36111310794056e-06,57.89333333333334,2.234796535605771,7.289999999999999,-0.0032647925522983263
S071,13640.0,13669.984375,N2,0.03153645833333339,11.922066816225525,-32.98,29.27,62.25,1.065,91.71706136535032,1000.0,947.0296223958334,1.4850586875795702,0.34327460814517324,0.7248675345939652,62.31825256971152,0.31947351112630235,63.28506932918696,0.042708333333333334,30,0.21963651666666664,0.0008586323037572942,2.6928870152145857e-07,34.81633333333333,0.012242911781470345,-2.25694505667876e-06,58.35366666666667,0.453692137418708,1.6300000000000026,0.00017093754636977743
S071,13670.0,13699.984375,N2,-0.030656249999999993,12.562937479387639,-31.63,24.55,56.18,0.98,145.91642555697638,1218.75,1193.798828125,0.9193940250316449,0.599301532109579,0.7854961000946402,62.21415654414873,0.5008081803347985,67.09694478886502,0.09270833333333334,67,0.2200207833333333,0.0008666277380680208,3.288438392046016e-07,34.818333333333335,0.01157103663847191,-2.0486116668316906e-06,58.772333333333336,1.0922017009488474,2.75,0.0018210074384243265
S071,13700.0,13729.984375,N2,0.03586979166666662,12.581636497363759,-26.34,22.04,48.379999999999995,1.0150000000000001,115.1461537623964,1000.0,1053.3610026041667,0.8142282634068628,0.5233729748786551,0.7436770505774369,62.17941003201201,0.38881409986784154,65.14598989960932,0.10520833333333333,63,0.220639925,0.0007302043339880993,1.6318298697455218e-07,34.82066666666666,0.011234866364233556,-5.833334915726257e-06,57.99,0.7360253618818673,2.470000000000006,-0.0010300697238687408
S071,13730.0,13759.984375,N2,-0.032296874999999954,13.177409539521866,-32.62,32.64,65.25999999999999,1.09,37.882146946480105,1062.5,1091.4876302083333,1.653652312979431,0.7401406350972917,1.1166336282425953,62.267471043133646,0.4513497082965127,65.02307282803544,0.16041666666666668,112,0.22091747499999997,0.0008262615502218426,3.4332366084083756e-07,34.81766666666667,0.011455226851625144,4.340278955152045e-06,59.26033333333333,1.1863318347841052,3.6799999999999997,0.001354826756409168
S071,13760.0,13789.984375,N1,0.08250520833333337,12.454282087606705,-31.33,22.3,53.629999999999995,1.87,203.97292809356532,921.875,1014.1845703125,0.9942930687665594,0.44409708648247426,0.7268534736948171,62.26394679964811,0.4517232898459629,65.58963332722634,0.17291666666666666,108,0.22128042499999998,0.0008750244821575025,6.124226921719563e-07,34.818333333333335,0.010354816378004481,1.8402782769852627e-06,59.013999999999996,0.3900478603111845,1.6700000000000017,0.000144305594700953
S071,13790.0,13819.984375,N2,0.046864583333333286,13.15289016331882,-34.91,25.83,60.739999999999995,1.46,232.00607591378963,1015.625,1052.587890625,0.775391925988973,0.4660046923196041,0.633740959830329,62.321709562317885,0.44644024993604403,64.35837163881635,0.26979166666666665,156,0.222027675,0.000784376452588298,2.337936832122632e-07,34.82233333333333,0.012297244497130341,-3.993056638741685e-06,59.60966666666666,0.804526706966415,2.019999999999996,-0.0012889239607541136
S071,13820.0,13849.984375,N2,-0.06127604166666667,12.880505917650686,-34.55,21.49,56.03999999999999,0.81,220.11900476718907,968.75,1038.4440104166667,0.7613143958805717,0.5091821806147143,0.5812462664157269,62.28214775885863,0.3411190560021315,63.623894882347464,0.14270833333333333,104,0.22217712499999998,0.0007376571760479273,1.5095121282313713e-07,34.81966666666666,0.011685698761970759,-1.7013893504202952e-06,64.453,2.2711100809956353,7.019999999999996,0.003622049593654947
S071,13850.0,13879.984375,N1,0.09843749999999997,12.597503909350207,-28.43,22.25,50.68,1.31,268.87192720310316,937.5,1051.6682942708333,2.287892488717631,0.6662034523556266,0.7206940797573005,62.25569787370221,0.42323034505678686,64.5832795698701,0.15208333333333332,98,0.22242265000000003,0.0008210733691333537,-1.0952997762857493e-07,34.82333333333333,0.0104349838949977,-1.736111582061173e-06,63.89333333333333,0.837047721990143,2.479999999999997,-9.368058096804004e-05
S071,13880.0,13909.984375,N1,-0.050223958333333305,12.28690422435988,-31.28,22.83,54.11,1.4649999999999999,104.49241535165888,921.875,956.4534505208334,0.6417131679578935,0.5053092682676841,0.6084893849503229,62.46583193809781,0.4519018492107236,64.5832795698701,0.18645833333333334,121,0.222871,0.0009207767644765966,2.4852741116737503e-07,34.82266666666666,0.0118133634311119,-3.125000847710235e-06,61.79466666666666,1.96425852564156,5.32,-0.0033286120140549077
S071,13910.0,13939.984375,N2,-0.17737500000000003,13.03482989536272,-32.07,26.07,58.14,0.745,116.51972389477378,890.625,908.8785807291666,0.72877295918665,0.43618851047072144,0.5700791474655076,62.362474187650875,0.3938864403756985,63.796551630946325,0.05416666666666667,42,0.22327665000000002,0.0008266062711472647,1.4288936167788467e-07,34.82033333333334,0.012512216252748174,-2.812500762940531e-06,61.00166666666667,0.7748938995472578,2.1400000000000006,0.0012898961832400672
S071,13940.0,13969.984375,N2,0.09601562500000006,13.099808606655513,-28.18,22.44,50.620000000000005,1.37,117.9359598181077,828.125,902.4088541666666,0.9152065786461667,0.4303470317178142,0.657634122357477,62.37778084028514,0.4182791428658869,65.27633568147036,0.08125,56,0.22368229166666667,0.0008739938729364992,2.8913571211363176e-07,34.82599999999999,0.009165151389910581,4.861112429771432e-06,60.211333333333336,0.3934016889756434,1.4699999999999989,0.0002965973026793901
S071,13970.0,13999.984375,N2,-0.09914583333333343,13.91975563645902,-33.0,25.42,58.42,0.84,171.38581838730542,968.75,1064.5345052083333,0.6802258803249762,0.51234753829798,0.6031591815299581,62.34960880925829,0.4416235189174239,64.04685784642366,0.09270833333333334,74,0.22429076666666667,0.000989398653504009,3.975001078287848e-08,34.840333333333334,0.01471582670309611,-3.159723079351187e-06,61.32166666666667,1.1863812859091956,3.5700000000000003,-0.0017542018647465998
S071,14000.0,14029.984375,N2,0.20171354166666677,13.213865639421781,-28.58,21.93,50.51,1.51,151.84831968367385,968.75,1019.140625,0.6641676795789013,0.5058640504127565,0.5413460589637238,62.36993130013589,0.4120614230072873,63.4428877022476,0.08854166666666667,68,0.2246537083333333,0.000982427625797726,9.200892252846021e-08,34.833999999999996,0.014966629547095255,-5.347223672749967e-06,64.49233333333333,2.0643734858035963,6.790000000000006,0.003323646734930213
S071,14030.0,14059.984375,N1,-0.009723958333333298,12.819892240546238,-34.98,27.53,62.51,0.88,192.2138199534803,1281.25,1196.4192708333333,0.9302404109810658,0.3625703356093668,0.6816154409746011,62.40040639846784,0.480570465927048,65.43699259593154,0.057291666666666664,36,0.22492059999999997,0.0007650333914281149,3.552774401251747e-07,34.836,0.011135528725660296,2.777778531280609e-07,67.78966666666665,2.612412018720545,8.349999999999994,0.004541910954294418
S071,14060.0,14089.984375,W,-0.10697395833333341,12.796274102064054,-31.02,24.19,55.21,0.935,70.64977873233369,890.625,919.1569010416666,0.6422582500227009,0.4939202853334624,0.508255415818005,62.37965886868348,0.43902478291388936,65.7419196555744,0.06979166666666667,51,0.22529421666666663,0.0008718552745279617,-2.695443439519168e-08,34.838666666666676,0.013840359661350795,2.916667457862425e-06,69.454,1.1679486290072862,3.8499999999999943,-0.0018456949451212416
S071,14090.0,14119.984375,W,0.08751562499999997,12.29269473630433,-31.19,32.81,64.0,1.23,104.29541070476132,937.5,879.1829427083334,1.2584087829201431,0.3160561549085155,0.6988054042833065,62.322955663859936,0.6074446371610664,69.46941773183363,0.028125,19,0.22562514999999994,0.000915564076130123,2.1350005791559796e-07,34.84166666666667,0.014161763857497747,5.312501441108966e-06,67.06233333333333,1.553884773362841,4.819999999999993,-0.0027295493515487597
S071,14120.0,14149.984375,N1,-0.04125520833333332,12.741519358375935,-31.16,24.52,55.68,1.1150000000000002,50.36536280894407,906.25,908.7158203125,0.6832563155275869,0.24944382578492943,0.5117022500520526,62.385609248245416,0.354036803976365,63.419239982831705,0.065625,54,0.2260201166666666,0.000873417027001169,1.2150437323794892e-07,34.84666666666668,0.014452988925784081,-5.000001356336474e-06,64.19866666666667,0.485954273111736,1.500000000000007,0.0006979168559887308
S071,14150.0,14179.984375,W,0.0763072916666667,12.628421415903698,-30.91,22.11,53.019999999999996,1.7,67.1482474232118,890.625,939.599609375,1.3385315336840842,0.4140739647259761,0.5457180221709946,62.376824476290686,0.4226621038408411,65.93178292750773,0.115625,82,0.22625495833333328,0.0009026486802353178,1.387302893691111e-07,34.856333333333346,0.01642829537379974,4.513890113360538e-07,64.19866666666668,1.0315222839193652,2.75,-0.0017673615905386267
S071,14180.0,14209.984375,N2,-0.22535937499999997,12.580147653148442,-29.66,21.91,51.57,0.54,98.130197232154,937.5,984.7737630208334,0.8604343218527619,0.4983468765578851,0.5791366898717052,62.49554450949675,0.46507145849914117,65.43699259593154,0.19166666666666668,128,0.22652184166666658,0.0009155273525481883,4.3532151565796455e-07,34.87766666666666,0.014985177861993304,-1.4930559605736942e-06,61.56433333333334,1.1914296267743039,3.720000000000006,-0.0021032297372042485
S071,14210.0,14239.984375,N2,0.22781250000000003,12.5825910283088,-32.23,23.46,55.69,1.4,85.21115771698162,937.5,962.0442708333334,0.7396390824058868,0.2966812233086026,0.5706356105256662,62.45040811158935,0.40008544412708,64.48255578061404,0.15729166666666666,99,0.22705558333333328,0.0009460958424258925,8.340280040223525e-08,34.87599999999999,0.013564659966250772,-4.652779039924931e-06,57.11533333333333,0.8481459518004878,2.9100000000000037,-0.0014728476217577093
S071,14240.0,14269.984375,N2,0.00823958333333336,13.00393394903762,-28.61,24.1,52.71,1.08,152.39106750337118,1171.875,1132.5358072916667,0.6335525936249404,0.31340840191176894,0.4624706728689819,62.46734454968622,0.339470044021918,63.796551630946325,0.14166666666666666,94,0.22726909166666662,0.0007346158179147513,8.282098600829726e-08,34.88999999999999,0.013662601021279173,1.2777781243972429e-05,54.649,0.8460155632926218,2.549999999999997,-0.0014416323355122425
S071,14270.0,14299.984375,N2,-0.014156250000000004,12.539095840467098,-27.71,25.04,52.75,0.69,120.00816766661103,1203.125,1141.5934244791667,0.8895125850087164,0.3017580864009005,0.6527178422543866,62.42504744995508,0.43170306638294687,64.69930447848725,0.11979166666666667,66,0.22745056666666663,0.0006950017833710156,2.920096278237933e-08,34.90399999999999,0.014742229591663401,1.4652781752597955e-05,55.035666666666664,0.41045246036809413,1.2999999999999972,0.0006346182277067666
S071,14300.0,14329.984375,N2,-0.16851562499999995,12.717584313279815,-31.71,22.71,54.42,1.295,68.46318382807144,1000.0,966.9921875,0.8772732128194475,0.4107271985116426,0.6476989183941014,62.424208072740946,0.4202140222289358,64.48255578061404,0.134375,84,0.22770666666666664,0.0008008396982057184,2.798551106377804e-07,34.91399999999999,0.013063945294843919,6.250001695420864e-06,57.223333333333336,1.1951382997609756,3.530000000000001,0.002139514469269333
S071,14330.0,14359.984375,N2,0.20267187499999997,13.649336396286841,-33.48,25.15,58.629999999999995,1.2850000000000001,82.2508376676965,1000.0,1031.4453125,0.5638400319214859,0.4311933839647821,0.4987386433544127,62.4857887916286,0.3848039604549194,63.26926584053272,0.178125,119,0.22817619999999994,0.0007978228876135378,2.636775888882356e-07,34.922666666666665,0.010934146311239526,7.430557571224461e-06,61.86300000000001,1.323009574165408,4.299999999999997,0.0023180909066001813
S071,14360.0,14389.984375,N2,-0.18092708333333335,12.699426302449643,-26.67,26.21,52.88,-0.115,188.09909319002472,1453.125,1351.3427734375,0.9092210637179131,0.31810085042587777,0.6920650208293695,62.3738155401272,0.46193610617387426,65.33758489567853,0.08854166666666667,49,0.2283896083333333,0.0008230781888317525,2.453080092523899e-07,34.93,0.014605934866806064,3.6111120906886954e-06,67.17266666666666,4.373858657473462,13.639999999999993,0.007634793737737015
S071,14390.0,14419.984375,N2,0.15259895833333337,13.13589791871238,-29.04,26.02,55.06,1.5,122.16138502650195,984.375,977.0100911458334,0.5965385904789023,0.3936121892873181,0.5267074994060323,62.48711661961147,0.40805216219939033,65.19202405202648,0.17604166666666668,124,0.22868839999999993,0.0010441797690053174,1.2253084921084244e-07,34.934666666666665,0.01231079020841485,4.513890113360653e-06,75.47099999999999,0.8988598333444424,2.6700000000000017,-0.0015926740431515948
S071,14420.0,14449.984375,N2,-0.03479687500000003,13.076589313874633,-33.53,23.61,57.14,1.205,190.7690325730432,1218.75,1109.5296223958333,0.9135458238217842,0.34437443284889774,0.6582772919185012,62.39257804297822,0.45592961906300866,65.27633568147036,0.10416666666666667,65,0.22888040833333326,0.0007716364590469782,3.075732171151314e-07,34.94533333333333,0.012310790208413427,4.5138901133594945e-06,70.69533333333332,3.0780900282841337,10.210000000000008,-0.005389932017668189
S071,14450.0,14479.984375,N2,-0.16490625,12.902854956670541,-27.21,24.67,51.88,0.73,72.71106616461581,968.75,992.7083333333334,0.749680921709363,0.40747012288223866,0.6177355601082247,62.44535126045606,0.4269339819280716,64.52906321960671,0.15520833333333334,91,0.22926455833333328,0.0009129340501539851,1.458678781108619e-07,34.948,0.0119443152447794,4.097223333666564e-06,61.4,0.7424239579467612,2.980000000000004,-0.0012511114504968137
S071,14480.0,14509.984375,N2,0.1940104166666667,12.712604090851128,-26.94,24.45,51.39,1.1,95.08549908493129,968.75,1022.8515625,0.8493352946324162,0.39059583224436306,0.7075853894289602,62.415778112880325,0.4550833956790109,65.40642170307133,0.11458333333333333,71,0.22956333333333329,0.0009125731051385552,7.644533323712412e-08,34.952,0.017397317800933402,7.5694464977893054e-06,57.94433333333333,2.3722221415560747,6.93,-0.004171424742682493
S071,14510.0,14539.984375,N2,-0.1607864583333334,12.375483944923793,-32.06,25.14,57.2,1.01,83.36028616861176,937.5,904.9479166666666,0.6322281681459806,0.339934634239519,0.4801213315981238,62.50068397626114,0.372103255652292,63.419239982831705,0.15833333333333333,108,0.2297447333333333,0.0007002487621473473,1.0672485533985908e-07,34.966666666666676,0.012736648783027734,5.76389045244339e-06,55.23500000000001,2.111731911646615,6.450000000000003,0.003616702369982196
S071,14540.0,14569.984375,N2,0.05369791666666681,13.298046444575196,-29.69,24.17,53.86,1.3650000000000002,149.8687797134398,1031.25,1077.9459635416667,0.9440460122599369,0.40307923943548485,0.7496346042776811,62.42542288454639,0.49677562227265115,65.49045732013177,0.15729166666666666,93,0.22997955833333333,0.0007551164567561017,1.3333553964180946e-08,34.97333333333334,0.012736648783028787,4.513890113361098e-06,59.77033333333334,1.2057320966487084,4.850000000000001,0.001238507280411047
S071,14570.0,14599.984375,N2,-0.004578124999999981,12.544879210472887,-32.26,26.61,58.87,1.58,116.33625671326075,859.375,887.1988932291666,0.6532163678781243,0.4724977494802371,0.548003795353848,62.45413552797698,0.41296342019286253,63.419239982831705,0.14479166666666668,104,0.2304385833333333,0.0008100800637728453,3.3609687936655664e-07,34.97900000000001,0.014685593847941296,1.0659725113858046e-05,67.40333333333334,0.9828575119969781,3.8800000000000097,0.000940347477307801
S071,14600.0,14629.984375,N2,0.1375625,12.965555662675127,-32.21,24.01,56.22,1.045,88.72609061188935,937.5,964.9332682291666,0.6985965283158799,0.3886352099191334,0.5295673925610308,62.46830572114319,0.3877675374792469,63.88270501473775,0.153125,90,0.230652075,0.0008619029640133439,2.0877414517527622e-07,34.98466666666666,0.00991071249821352,3.33333423755797e-06,66.42566666666667,0.8934714445477387,3.6000000000000085,-0.0012263544993366153
S071,14630.0,14659.984375,N2,-0.26060416666666675,12.762160832482456,-31.07,22.87,53.94,0.58,61.979061949398364,953.125,963.134765625,0.6535128101694377,0.36795317627458474,0.5412408181797534,62.475377648037856,0.3737482241448393,63.88270501473775,0.15208333333333332,91,0.23105772500000002,0.0009398244779611696,1.7041085351857038e-07,34.98233333333334,0.012565384549981087,4.131945565306381e-06,58.73766666666666,2.2757353146229957,7.159999999999997,-0.004021216368602531
S071,14660.0,14689.984375,N2,0.06088020833333339,12.573822712709527,-30.11,23.08,53.19,1.44,101.50432746517131,937.5,986.1897786458334,0.6199238304465764,0.3911440995301121,0.5270421591296088,62.45613437495238,0.3778058644673727,63.88270501473775,0.15104166666666666,92,0.2310257,0.0007919670195153234,6.671876809861776e-09,34.98366666666667,0.01168569876197307,9.270835848208785e-06,56.607,0.7011806709638634,2.030000000000001,0.001010451662991445
S071,14690.0,14719.984375,N2,0.18354687499999994,13.100831329891285,-32.41,24.94,57.349999999999994,1.045,63.37280348550055,937.5,950.5533854166666,0.6077828202550827,0.38947608817986357,0.5216150383797317,62.458488092420176,0.3746868145626405,64.04685784642366,0.153125,94,0.23124987500000002,0.0007913192524986262,5.0317070941046036e-08,34.989000000000004,0.011357816691601061,-9.375002543131569e-07,56.54833333333334,0.21019171143400364,0.7199999999999989,0.00016531254484389708
S071,14720.0,14749.984375,N2,-0.06541145833333332,12.642750711766357,-30.19,23.68,53.870000000000005,0.39,144.40444653334754,1250.0,1152.2135416666667,0.6840157923371847,0.3799671038392666,0.5779363430920976,62.44966136429298,0.39291070037103976,64.48255578061404,0.14270833333333333,84,0.23153810000000002,0.0008864750363095317,3.0690633325367003e-07,35.005,0.019621416870348966,1.5729170933477064e-05,56.90733333333333,0.787988719603411,2.270000000000003,-0.0010959030750605134
S071,14750.0,14779.984375,W,-0.7531875000000003,16.621183918116174,-57.65,56.54,114.19,-0.31,91.54848478273934,1031.25,995.1741536458334,5.998578300169457,2.4336606158327734,2.4924460528542816,62.59815104610025,2.273861021028288,93.49331526906082,0.0625,27,0.23151675833333338,0.0010491675906469248,-8.106076417663899e-07,35.02166666666666,0.019846634195471537,1.2187503306071806e-05,55.98633333333333,0.23103366758019345,0.9199999999999946,0.00012100697726968739
S071,14780.0,14809.984375,W,0.6936302083333337,36.5679921458918,-105.41,112.18,217.59,-0.98,44.69764955823535,890.625,882.8776041666666,10.270544652383204,8.6376293908141,6.340488608138222,62.76442881204981,5.027985935123422,106.310864919819,0.08020833333333334,55,0.2597601083333333,0.01911079754998721,3.365517210698028e-05,35.05233333333333,0.01994715240050324,2.170139477576871e-05,60.34466666666666,2.452035526296922,8.519999999999996,0.0043732650752129655
S071,14810.0,14839.984375,W,0.079953125,6.077288530522424,-17.71,11.88,29.590000000000003,0.73,22.06757415017628,656.25,650.3987630208334,1.308996647139412,0.3329164059239696,0.6161843553046622,62.34003581546943,0.44151390237409877,63.56886030125127,0.171875,114,0.2710103583333333,0.004669971510969192,-8.150502862007065e-06,35.08600000000001,0.013063945294843917,9.166669153285215e-06,75.213,5.216692534547153,16.86999999999999,0.009362467817509717
S071,14840.0,14869.984375,N2,-0.02915104166666665,6.998519966906318,-21.03,13.88,34.910000000000004,1.24,43.095119647269996,718.75,718.505859375,0.8592777722777167,0.47028798616438794,0.5517638619690493,62.28933811379588,0.44700747035180044,63.58458932791813,0.159375,113,0.25784950833333337,0.0029937346102480774,-5.105176081048195e-06,35.112,0.014922019523732562,1.5069448532294338e-05,86.63566666666667,2.17469489558625,7.070000000000007,0.003857744102035618
S071,14870.0,14899.984375,N2,-0.10645833333333335,7.817925033638863,-20.12,14.21,34.33,1.0150000000000001,31.558055963498543,765.625,759.1389973958334,0.6863239625695887,0.3212507430817173,0.5652239216427611,62.439858541551054,0.4189554205744487,64.04685784642366,0.09791666666666667,70,0.24966249166666668,0.0021341582103014843,-3.5778306146458962e-06,35.14533333333332,0.013597385369579284,1.409722604633786e-05,81.59633333333333,3.921338617813507,12.849999999999994,-0.007056008858509346
S071,14900.0,14929.984375,N1,0.628359375,14.438720015768927,-53.16,90.76,143.92000000000002,1.15,68.36737255967002,796.875,809.3831380208334,5.682315631632935,6.339771604171206,2.4426192680990804,62.57147733822194,1.747562219887884,82.75868534480233,0.05,22,0.24397347499999997,0.0016284536681695975,-2.430509122859471e-06,35.172999999999995,0.01417744687875923,1.2743059012332833e-05,71.41033333333333,1.876799551245565,6.22999999999999,-0.0032851745022717286
S071,14930.0,14959.984375,W,-0.57996875,14.59693153040015,-49.12,109.2,158.32,0.08499999999999999,31.31323350803153,765.625,758.7483723958334,4.511855043937028,5.876432948031343,2.4890593939612344,62.64316281748339,1.4338853588297757,75.49172140042907,0.04791666666666667,22,0.24135810000000008,0.0010810776521601013,-1.1442268728914038e-06,35.20799999999999,0.015999999999999303,2.8472229945804727e-06,71.05066666666669,1.0657733759523602,2.950000000000003,0.0018557643922972
S071,14960.0,14989.984375,N2,-0.002270833333333311,10.497478935915167,-29.66,21.81,51.47,1.5,37.05697537338803,765.625,777.2542317708334,0.9428867234529761,0.5114562118082272,0.6006281072876034,62.44445113471279,0.5040477667176193,65.58200972827838,0.13333333333333333,96,0.24007714166666672,0.000752921125747715,-5.113608157988329e-08,35.22533333333333,0.009910712498210955,3.958334407100042e-06,73.54500000000002,0.9244448784721204,2.780000000000001,0.0015624657016237251
S071,14990.0,15019.984375,N2,0.06658333333333331,10.75300667223152,-26.65,19.07,45.72,1.225,67.94131323250949,859.375,903.9632161458334,0.4696334267868457,0.40594406215293044,0.4894713967780843,62.42012644914819,0.40401824094642463,63.647466563878254,0.27395833333333336,164,0.23972497500000003,0.0008589956195318961,1.0368600902940655e-07,35.230000000000004,0.01154700538379227,9.72222485953887e-07,73.00399999999999,1.2150297664392153,3.0999999999999943,-0.0020541672238951897
S071,15020.0,15049.984375,N1,-0.1210260416666667,11.436800531405414,-25.77,20.05,45.82,1.16,81.1184229360256,890.625,923.4781901041666,0.45576815309431173,0.3591802008277553,0.5163809693971647,62.39594819702545,0.4242918737350652,63.796551630946325,0.303125,157,0.2395968916666667,0.0007979186236268359,-6.478148458698983e-08,35.21699999999999,0.011874342087036294,-5.729168220802142e-06,70.18833333333332,1.7748860683310228,5.610000000000014,-0.0031640633583071174
S071,15050.0,15079.984375,N2,0.13683854166666665,11.847367721661405,-26.02,22.57,48.59,1.43,66.54600509166934,921.875,925.29296875,0.47186350243534997,0.33181784400062364,0.5064675030021396,62.41136654709423,0.4176729872123447,63.592452382338585,0.321875,171,0.23940483333333337,0.0008428334091358428,-2.625890469262798e-07,35.193,0.018823743871327705,-1.621528217645459e-05,64.81166666666667,0.7588459805666903,2.9699999999999918,-0.001152535034867359
S071,15080.0,15109.984375,N2,-0.08905729166666668,12.634115924949043,-30.97,25.27,56.239999999999995,0.72,161.94736683733106,937.5,991.8538411458334,0.5043205257654435,0.39170545020745146,0.4924682290231749,62.43277805703661,0.4009040793107231,63.592452382338585,0.28958333333333336,158,0.2393301333333334,0.0008038627467146046,-2.283247147148065e-08,35.17366666666666,0.0160173517023133,4.513890113359541e-07,60.87266666666667,1.7593122393581977,5.280000000000001,-0.0031542369667526492
S071,15110.0,15139.984375,N2,0.17021874999999997,12.716157252277451,-28.46,21.65,50.11,1.02,60.139652401034795,890.625,912.6139322916666,0.6116774522209851,0.3505188985830705,0.5219113842938814,62.39901372270524,0.40512726433845225,63.647466563878254,0.315625,168,0.23937283333333337,0.0008618616413838594,-1.0564108768475505e-07,35.15866666666666,0.007180219742845983,-3.888889943817274e-06,59.53233333333333,0.7785999543339888,2.1999999999999957,-0.0003836459374039538
S071,15140.0,15169.984375,N2,-0.2030364583333333,12.858422207461437,-32.46,23.57,56.03,0.32,126.50078183084564,937.5,1012.6708984375,0.4441447285858018,0.31939613161228,0.5043979755196619,62.41693267252772,0.4049885839658614,63.592452382338585,0.33541666666666664,166,0.23941547500000002,0.000802769736210199,1.3943949095038273e-07,35.151999999999994,0.008717797887080374,-4.166667796946939e-06,59.57666666666667,0.6177557949725948,1.7199999999999989,0.000967639151377809
S071,15170.0,15199.984375,N2,0.2036041666666667,13.049312279515576,-30.94,23.94,54.88,0.86,191.0866487226247,984.375,913.0940755208334,0.8385248445517614,0.4570009041444982,0.6248298379470117,62.45822890217286,0.46754757737833186,65.13831437794502,0.10625,70,0.23957558333333337,0.0009554048930805256,2.3060336116625734e-08,35.13733333333333,0.010934146311236233,-9.375002543130212e-06,59.10766666666667,0.20613399094332327,0.9099999999999966,1.284722570724676e-06
S071,15200.0,15229.984375,N2,-0.043343750000000014,12.943347054993257,-31.63,24.49,56.12,0.81,103.38761001425478,859.375,900.1953125,0.47563918981607145,0.24767801889079027,0.5039384814196625,62.38480893916692,0.4046462944824907,63.647466563878254,0.334375,186,0.23982097500000005,0.000734477313723839,2.8796340276784595e-07,35.12666666666667,0.01468181036369665,-1.5486115311989487e-05,57.279333333333334,0.5088348345867144,1.7800000000000011,-0.00012354170017949909
S071,15230.0,15259.984375,N2,-0.09889062500000007,12.262173652152262,-29.69,26.25,55.94,0.635,193.4030680841641,1187.5,1121.2076822916667,0.6548960901462832,0.36342673684740856,0.5780114377953278,62.5159984295869,0.42321037151250407,64.2339474110069,0.11770833333333333,85,0.24001310833333336,0.0008778320814733724,2.2235878427701307e-07,35.10400000000001,0.02009975124224193,-2.701389621687698e-05,56.35966666666666,0.9075185336338257,2.8299999999999983,-0.0011097572454853656
S071,15260.0,15289.984375,N2,-0.04511458333333332,12.835218865301986,-30.6,23.63,54.230000000000004,1.15,81.37452738960457,1031.25,1016.6910807291666,0.576401334370323,0.3887957167652442,0.5691266686165353,62.465990510741584,0.40955810976697815,63.647466563878254,0.07604166666666666,56,0.2402372416666667,0.0008874011493854066,6.756013117407872e-08,35.08666666666667,0.016397831834998662,-8.263891130611975e-06,58.498000000000005,0.5926010462359984,1.9699999999999989,0.00015875004306370474
S071,15290.0,15319.984375,N2,-0.030427083333333372,13.243986486204465,-33.27,26.97,60.24,0.915,87.1152498538355,937.5,981.3883463541666,0.46500821378647594,0.24108226753998774,0.5098412998587568,62.450232388341796,0.3936152632182645,63.647466563878254,0.41875,181,0.24037600000000003,0.0007080993927408677,5.115105554227815e-08,35.078,0.01423610433604344,6.944446328244438e-07,58.11466666666666,0.6783791139342521,1.8699999999999974,0.0009293752521091701
S071,15320.0,15349.984375,N2,0.07211979166666659,12.840139928017397,-25.87,21.67,47.540000000000006,0.75,119.21273361452846,968.75,978.8411458333334,0.5345597471414106,0.3962703180034502,0.5077427836759475,62.42871090225949,0.3910627598065928,63.647466563878254,0.296875,141,0.24067490000000008,0.0007093856778931965,2.985664872413401e-07,35.068,0.014000000000001544,-5.763890452444575e-06,57.50033333333332,0.6879461380725161,2.280000000000001,0.0009811460994862476
S071,15350.0,15379.984375,N2,0.12202604166666674,12.227694437617359,-30.28,25.63,55.91,1.33,168.84776744761646,968.75,1002.9541015625,0.6795939031979974,0.4609725151483786,0.6006904303012955,62.4702810763968,0.4335211290265942,64.78425734698207,0.12604166666666666,92,0.24117662500000006,0.0009976985438372638,2.1433404251682847e-07,35.03566666666666,0.016868774571839103,-1.8020838221796434e-05,59.24966666666668,0.6346257864985392,2.469999999999999,0.0005615626523336202
S071,15380.0,15409.984375,N2,-0.037843749999999995,12.565786719160057,-28.72,23.22,51.94,0.94,161.14981739467694,1156.25,1033.3414713541667,0.6310127441924872,0.4661723107005486,0.547052550542958,62.4974430284749,0.42552700956272366,64.10148204214939,0.07708333333333334,54,0.24139012500000007,0.0007188802121181247,-1.4733727955112239e-08,35.012666666666654,0.01590248058916898,-3.125000847711296e-06,63.1,1.3115893666337293,5.230000000000004,0.0021986117075227076
S071,15410.0,15439.984375,N2,-0.029812500000000006,12.799060466261203,-28.69,22.02,50.71,0.655,157.681254880412,1125.0,1101.7985026041667,0.6589321841160052,0.5282790702286687,0.6146221739139149,62.52500457883293,0.4218638211419445,64.10148204214939,0.071875,54,0.24148620000000007,0.0007383520230892604,1.1397789550181664e-07,34.997,0.01268857754044974,-8.229168898971366e-06,69.02666666666667,0.9085421778260432,3.5999999999999943,0.001324167025869963
S071,15440.0,15469.984375,N2,0.04473958333333335,12.473358180826171,-29.07,24.35,53.42,1.105,112.99485993674477,984.375,1050.3255208333333,0.6150589614351348,0.4665503947413755,0.5211655190665332,62.49515519680264,0.39706455506025856,63.796551630946325,0.06354166666666666,50,0.24192387500000004,0.0009722458070750455,1.35383500266792e-07,34.983333333333334,0.011642832797716123,-2.430556214885987e-06,67.153,1.6140263318793784,5.580000000000005,-0.0028335077130826054
S071,15470.0,15499.984375,N2,-0.1515989583333333,12.531119255161617,-26.55,23.16,49.71,0.7,109.67336980862575,984.375,1015.6575520833334,0.6735806837343244,0.5539629951540084,0.591232785455291,62.5585388116853,0.41963882906996014,63.984373092185564,0.071875,49,0.242051975,0.0009127593189746165,-1.8097465846751859e-07,34.977000000000004,0.011298967504453155,-4.618056808284817e-06,60.653999999999996,1.5875612324148844,5.609999999999999,-0.0026903479520258115
S071,15500.0,15529.984375,N2,0.05189062500000004,12.447523457604747,-27.6,23.22,50.82,1.005,88.51000313162605,921.875,927.7099609375,0.6834349517937558,0.5130924759620715,0.5956876278721929,62.53350279874715,0.4190597241631607,63.984373092185564,0.0625,44,0.24101650000000005,0.0010371793962473369,-7.344624388190163e-07,34.96466666666667,0.011469767022722458,-9.861113786108549e-06,55.36899999999999,0.9588234109226439,3.279999999999994,-0.0017055212959855945
S071,15530.0,15559.984375,N2,-0.09874479166666664,12.826708257637085,-32.09,26.58,58.67,0.14,130.56864388221618,906.25,964.6728515625,0.6299801584177076,0.5185355564123727,0.537159735644084,62.51770569839003,0.38053586273091144,63.647466563878254,0.059375,46,0.2402265666666667,0.0008243574339380174,-2.2346013006188172e-07,34.948,0.01077032961426924,-3.819445480535519e-06,55.24266666666667,1.7808517313041217,5.769999999999996,0.002844653549439438
S071,15560.0,15589.984375,N2,0.18025,12.771029831549738,-28.62,25.6,54.22,1.1749999999999998,92.71886958567504,906.25,945.4264322916666,0.6428281897966378,0.5214902107715499,0.5396185236272628,62.54083981703687,0.37999558734641187,63.647466563878254,0.051041666666666666,40,0.23946885000000004,0.000896316533095307,-2.0253043688434644e-08,34.94733333333333,0.012364824660661133,5.277779209467792e-06,63.60166666666667,1.6116763184819574,6.1299999999999955,0.00283538271359123
S071,15590.0,15619.984375,N2,-0.12545312500000005,12.94896502069481,-31.08,28.74,59.81999999999999,0.795,9.62963790125641,1031.25,1032.1044921875,0.638190666171865,0.5178078794301995,0.568681314533896,62.53048186951269,0.40476804041864467,64.319514923544,0.05520833333333333,36,0.24021590000000004,0.0010044791386584317,1.87617238394433e-07,34.94666666666665,0.012736648783029221,-2.291667288321834e-06,66.883,0.4431339150490133,1.5699999999999932,-1.4826392910805823e-05
S071,15620.0,15649.984375,N2,-0.0969947916666667,12.879538240621809,-29.03,23.88,52.91,0.59,275.6852223823436,1109.375,1245.4020182291667,0.7206767652699787,0.553609329699704,0.6060888961200329,62.52510914018456,0.41495221573333035,64.10148204214939,0.08125,59,0.24053613333333337,0.001004509241149897,5.590340058143422e-07,34.943333333333335,0.01299572579307919,3.888889943817447e-06,66.16633333333333,0.3895936629646609,1.1499999999999915,0.0006227432244854652
S071,15650.0,15679.984375,N2,0.17238541666666674,12.675925378670414,-28.71,24.78,53.49,1.5750000000000002,126.86927334619435,1078.125,1046.6552734375,0.6551048209171483,0.546126471857837,0.5898436925128743,62.56250179362058,0.4158757705804586,64.10148204214939,0.07604166666666666,51,0.2407069333333334,0.0009082310713077809,1.1926348721339997e-07,34.943999999999996,0.014742229591665039,1.7986115990158393e-05,66.15866666666666,0.7374764779676409,2.4200000000000017,-0.0011927781013395462
S071,15680.0,15709.984375,N2,-0.06996875000000008,12.422227918427387,-30.26,24.11,54.370000000000005,1.2,57.32788559440918,890.625,890.673828125,0.6590639076561544,0.5434975068301193,0.589468297081267,62.53163114425908,0.4111748674958878,63.647466563878254,0.058333333333333334,45,0.24106987500000007,0.0008415665210635427,1.8486658660660375e-07,34.93533333333333,0.015434449203722181,-1.7916671526876958e-05,61.11566666666667,1.4937551859510172,4.530000000000008,-0.002358229806377445
S071,15710.0,15739.984375,N2,0.08088541666666664,12.311948572567111,-29.5,23.32,52.82,1.6150000000000002,90.25498045296492,890.625,912.1907552083334,0.6867412163718505,0.5962520381982401,0.6227738130511126,62.552920062800055,0.4206938121875872,63.984373092185564,0.071875,42,0.24132607500000006,0.0007667444615874312,1.1481188010304866e-07,34.92999999999999,0.014605934866806712,8.333335593896591e-06,58.885666666666665,0.7751889375428983,2.4200000000000017,-0.0013891323212707016
S071,15740.0,15769.984375,N2,-0.05332291666666673,12.39283624131531,-31.11,22.3,53.41,1.15,57.80790327888353,953.125,937.2802734375,0.7026611124068906,0.588651354085478,0.6006904303012955,62.57151136774373,0.4154898590624936,64.20280367709809,0.06979166666666667,50,0.24182780000000006,0.000958612622491486,-2.5464329824308195e-07,34.92866666666667,0.010241527663826413,3.05555638442875e-06,57.275666666666666,0.27755700115271587,0.8999999999999986,-6.496529540074229e-05
S071,15770.0,15799.984375,N2,0.20711979166666658,11.975195317919313,-27.04,23.01,50.05,0.98,101.34039696116888,937.5,961.4908854166666,0.7669036941113706,0.6214342729167386,0.6805512152639376,62.55679319468411,0.43746451001631026,64.45153217728807,0.06354166666666666,40,0.24129405000000007,0.0006652846364527003,-1.1119794683103473e-08,34.928000000000004,0.010770329614270692,-1.3194448023669598e-06,56.519999999999996,0.269530455916704,0.9099999999999966,0.00033597231336054376
S071,15800.0,15829.984375,N2,-0.10926041666666671,12.45719960316188,-30.5,23.68,54.18,1.005,90.70433691855978,953.125,970.2229817708334,0.6659371008002349,0.5209124939842477,0.5692791723237964,62.51462375924504,0.4056162883416762,63.984373092185564,0.06354166666666666,49,0.2414648500000001,0.0006815299901691804,-1.5623311529761208e-07,34.925999999999995,0.013063945294845006,-2.222222825038918e-06,58.75033333333333,0.6701018993821425,2.3999999999999986,0.0010746877915277207
S071,15830.0,15859.984375,N2,0.0058645833333332694,12.608477768879517,-31.38,24.21,55.59,1.525,126.29806433506805,953.125,1003.7679036458334,0.7226607075688347,0.6156584875268828,0.666222996899103,62.5801706839443,0.44058162512506127,64.319514923544,0.052083333333333336,28,0.24166767500000005,0.0008619029640133535,3.8780283957325416e-07,34.91999999999999,0.010000000000001563,-9.513891469698608e-06,58.61133333333333,0.12090584031477616,0.44999999999999574,4.4930567743751235e-05
S071,15860.0,15889.984375,N2,-0.07089583333333337,12.289606945910949,-30.35,24.6,54.95,0.925,79.15305974372794,1046.875,1004.6549479166666,0.7608239491480419,0.611853932221572,0.7002944569171521,62.493990420378125,0.4644832300753617,64.78425734698207,0.09270833333333334,62,0.242393575,0.0007577746329714422,-2.2823378587071095e-07,34.90733333333332,0.011234866364234344,8.333335593883022e-07,58.74633333333333,0.35450889347879017,1.25,0.00019329866354672926
S071,15890.0,15919.984375,N2,-0.07290624999999998,12.235817295425928,-31.08,23.07,54.15,0.5700000000000001,71.40464018517254,968.75,946.09375,0.8894875777894071,0.629925039632142,0.7653741085519333,62.50929113630823,0.5030953881621901,64.78425734698207,0.05,24,0.24241492500000003,0.000784376452588299,6.810874243401228e-08,34.90066666666665,0.013399834161493433,-3.7500010172529485e-06,60.217666666666666,0.22757684904713507,0.9799999999999969,0.0003442014822595178
S071,15920.0,15949.984375,N2,-0.03660937499999986,12.905941239789996,-28.26,24.66,52.92,0.92,120.7961452742083,953.125,980.3385416666666,0.6916039128158705,0.6013548072200525,0.6150739567094532,62.48373367397029,0.4104178687837441,63.592452382338585,0.096875,70,0.24330094166666663,0.0009184993131537402,3.268970070792666e-07,34.892666666666656,0.012364824660660216,3.6111120906885226e-06,58.48233333333333,1.1127793531913184,3.200000000000003,-0.0019822574821662005
S071,15950.0,15979.984375,N2,0.15437499999999996,12.540220742715881,-31.19,24.74,55.93,1.1150000000000002,19.52473171395515,875.0,869.8079427083334,0.8238628526642041,0.5558402048550763,0.7317661995701451,62.49819702894638,0.4591130554290985,64.69930447848725,0.16770833333333332,111,0.24365322499999997,0.0007480882798005887,-2.832767695520761e-07,34.892666666666656,0.012364824660660214,1.388889265644008e-07,57.92100000000001,0.9171744654099344,2.8999999999999986,0.0016073962693674768
S071,15980.0,16009.984375,N2,0.014265624999999978,12.26408745171011,-30.35,22.53,52.88,1.185,84.80724205723617,890.625,921.1018880208334,0.6651015155911665,0.543582349633736,0.5907232795950703,62.455524035929514,0.40339277480335034,64.10148204214939,0.1125,78,0.24318351666666663,0.0011129794171751612,-3.900430745559573e-07,34.889333333333326,0.013148721948877168,-1.1597225368170682e-05,62.11866666666666,1.0796874033204653,3.4200000000000017,0.001923194966144468
S071,16010.0,16039.984375,N2,-0.12769270833333332,12.767548231884165,-28.57,22.49,51.06,1.2,95.70085380090954,1078.125,1024.267578125,0.822531555456824,0.6502670391633135,0.7192299122441075,62.48553460841041,0.4628333405704962,64.78425734698207,0.15729166666666666,100,0.24289529999999998,0.0007383520230892605,1.584570742342329e-07,34.879,0.013253930234714504,-6.423612853627082e-06,62.15266666666667,0.7466098192645348,2.25,-0.0012504170058639872
S071,16040.0,16069.984375,N2,0.05411458333333332,12.24185921028218,-32.63,24.25,56.88,1.245,131.12643344072612,1000.0,1043.896484375,0.8193594000125274,0.6287517602692391,0.6983790445958095,62.467830731327425,0.4487468353379846,64.78425734698207,0.125,85,0.24359984166666665,0.0009055071506788661,2.3073291849308837e-07,34.86300000000001,0.016155494421401486,1.2847225707252435e-06,61.45000000000001,0.6508916960601056,2.5,0.0009698613742028468
S071,16070.0,16099.984375,N2,-0.05338541666666658,12.8805013973559,-28.03,25.14,53.17,0.875,65.71381024273548,968.75,957.275390625,0.6537941813730237,0.553272108497859,0.6114991468491369,62.4558600860154,0.39780554219473396,64.20280367709809,0.11354166666666667,78,0.24352511666666662,0.0009580343607558619,1.1418405875219244e-08,34.853666666666676,0.0160173517023093,-7.604168729428456e-06,67.62533333333333,1.740947507026625,5.450000000000003,0.0027106257353042887
S071,16100.0,16129.984375,N2,0.009973958333333291,12.143230116224094,-29.22,24.01,53.230000000000004,1.295,163.21005518854457,1250.0,1104.1829427083333,0.7424358137239879,0.6171028862533557,0.6534331078150915,62.4393733807615,0.43261046895777927,64.45153217728807,0.125,81,0.24381334999999996,0.000869603086183579,2.3796360621842695e-07,34.83966666666667,0.010159833769418354,2.6041673730923767e-06,68.73333333333333,0.8882241959225294,3.1899999999999977,-0.0013827087084170766
S071,16130.0,16159.984375,N2,0.14970312499999996,12.344517556954122,-29.86,24.5,54.36,1.18,74.28778354639802,953.125,961.9059244791666,0.8722420573425832,0.635084441837374,0.715587850806749,62.456871428830105,0.45143621467482725,64.78425734698207,0.14166666666666666,86,0.24373862499999993,0.0006897570111097119,3.071843281207498e-07,34.838666666666676,0.009568466729605124,-3.819445480536702e-06,63.232,1.5833538244288088,5.169999999999995,-0.002822292432262488
S071,16160.0,16189.984375,N2,-0.1994895833333334,12.267971916653876,-28.55,21.59,50.14,0.49,94.83911912517326,921.875,957.6171875,0.6031591815299581,0.5001724962866978,0.5722761571129799,62.40379047744347,0.3822312310663974,63.647466563878254,0.2791666666666667,160,0.24378132499999997,0.0007425841833590341,8.701239339528932e-08,34.83233333333333,0.007608474807009997,1.5625004238547846e-06,60.616333333333344,0.5017335503587097,1.4499999999999957,0.0006590626787821945
S071,16190.0,16219.984375,N2,0.10408854166666663,12.884415683397405,-31.01,25.45,56.46,1.09,37.01858121382743,953.125,977.1728515625,0.776219219062287,0.6738794389680464,0.6915529211190806,62.48643527202971,0.47498981860129463,64.10148204214939,0.15,93,0.24432574999999995,0.0007800788662052089,2.2461985259870205e-07,34.83366666666666,0.006574360974440332,-2.8125007629410496e-06,58.214333333333336,1.1561161514119398,3.990000000000002,-0.001931840801823134
S071,16220.0,16249.984375,N2,0.09880729166666666,12.1476603321873,-29.92,26.94,56.86,1.385,75.16909716187571,828.125,856.4453125,0.7104869222347916,0.5987173428231574,0.6285308252296691,62.445636139865634,0.40674777709755033,63.88270501473775,0.11875,81,0.24432574999999995,0.0007800788662052089,5.076186272837005e-07,34.830000000000005,0.010954451150102873,-4.7222235032074025e-06,56.50333333333333,0.34003267816817484,1.2999999999999972,0.0002783334088361009
S071,16250.0,16279.984375,N2,-0.21956770833333333,12.29378148066631,-28.11,23.23,51.34,0.825,188.19197916650404,1000.0,1032.0068359375,0.7463772458050657,0.6573824554308804,0.6697033702816991,62.48220597827815,0.45641109541767133,64.319514923544,0.12708333333333333,86,0.24493422499999998,0.0007661497401781222,2.501953803698405e-09,34.818999999999996,0.011647603473102798,-9.826391554466881e-06,58.782666666666664,0.4193799656106091,1.7999999999999972,0.0006818057405071997
S071,16280.0,16309.984375,N2,0.14236458333333335,12.31276015090628,-27.85,24.5,52.35,1.14,78.92332825948237,875.0,895.8170572916666,0.6337580812546343,0.5033470869395744,0.5720400490423143,62.415940776498445,0.37958791424142996,64.20280367709809,0.29270833333333335,159,0.24487015833333328,0.0010282277390072161,-5.697375677456487e-08,34.816,0.012806248474864593,7.638890961063985e-07,60.077999999999996,0.28945235647109,0.9000000000000057,0.000124097255885757
S071,16310.0,16339.984375,N2,0.047255208333333326,12.310310812886437,-30.25,25.07,55.32,1.25,46.89150978673626,937.5,910.3597005208334,0.7740578670856736,0.6533035707506546,0.696640624513258,62.4666714369254,0.4736397272275293,64.78425734698207,0.13645833333333332,88,0.24485949999999998,0.0007988438520762391,3.280339431515699e-07,34.81333333333334,0.012736648783027734,-9.652780396261107e-06,60.335,0.7887067473613587,1.980000000000004,0.0013272573044860317
S071,16340.0,16369.984375,N2,0.02861979166666663,11.90608288689476,-26.42,23.07,49.49,1.28,119.35892308632856,875.0,935.4654947916666,0.6411760841089859,0.5187458165828638,0.5949403273064917,62.41387065897335,0.40362858126275836,63.647466563878254,0.21979166666666666,109,0.2448915083333333,0.0009684149420215272,4.044825315979104e-07,34.800666666666665,0.009977753031398738,-6.6666684751172736e-06,61.734333333333325,0.2938898130630293,1.2199999999999989,0.0003859376046922763
S071,16370.0,16399.984375,N2,-0.08836979166666667,12.27515674962391,-26.21,23.75,49.96,0.985,131.4459805899085,1023.4375,991.064453125,0.6472690694478525,0.5489533918183664,0.5920443336909454,62.418414949721196,0.3937217686224578,64.10148204214939,0.23229166666666667,120,0.245211775,0.000823498587961755,-1.070280238248766e-07,34.80933333333334,0.01209223809814457,1.0208336102521079e-05,63.36466666666666,0.36752989296412686,1.2800000000000011,0.00027159729589770553
S071,16400.0,16429.984375,N2,0.15747395833333327,12.423515644247546,-30.2,22.53,52.730000000000004,1.45,137.83096569407914,1234.375,1182.1207682291667,0.7640353394968064,0.6155395104206463,0.674690483306152,62.43597392829661,0.4451044353836754,64.78425734698207,0.11041666666666666,71,0.24465667499999993,0.0007302043339880993,-9.757619834423822e-08,34.808666666666674,0.010241527663824933,-3.888889943818286e-06,60.42633333333333,1.7812439161689477,5.970000000000006,-0.003199341145654608
S071,16430.0,16459.984375,N2,0.014552083333333302,12.146279227409684,-29.09,21.5,50.59,0.98,111.74799277797406,1078.125,1013.1184895833334,0.7265063075641913,0.673918887305191,0.6473025961956794,62.457203309311744,0.42798533381886256,64.20280367709809,0.10520833333333333,67,0.24537189999999995,0.0007709685726409372,4.5035168466571456e-07,34.80733333333333,0.01436043948569177,-1.3888892656491012e-05,58.150999999999996,0.6355278645871214,2.0500000000000043,0.0011185766923222358
S071,16460.0,16489.984375,N2,-0.17291145833333335,11.842634948059223,-27.71,23.15,50.86,1.0550000000000002,121.23612514562826,1000.0,986.9873046875,0.6798748544462675,0.6063573788067012,0.6427471625223682,62.44154250972883,0.4252673736134412,64.10148204214939,0.11666666666666667,77,0.24652478333333336,0.0007383076953788016,2.268264504195018e-07,34.80466666666667,0.012578641509409341,-4.3055567235126715e-06,61.35466666666667,1.224940089237928,4.470000000000006,0.0021927089281436984
S071,16490.0,16519.984375,N2,-0.06681770833333335,11.84727912803624,-26.54,22.04,48.58,1.065,115.09482660847952,937.5,954.2399088541666,0.6949095664585109,0.6031025110948295,0.6342980248865672,62.42348083512361,0.4204149858041892,64.20280367709809,0.20208333333333334,116,0.24679161666666669,0.0007424508758534491,1.8105473661425146e-08,34.806000000000004,0.016653327995728762,3.0555563844285527e-06,63.19166666666667,0.357659832180741,1.25,0.00015010420738503915
S071,16520.0,16549.984375,N2,0.16011979166666665,11.83767618384481,-30.7,24.85,55.55,1.37,86.28951907282948,984.375,977.3763020833334,0.6995092215558467,0.6174535730972456,0.6351254455595541,62.436253022554325,0.4167535285698321,64.20280367709809,0.10833333333333334,72,0.24694105000000005,0.000808245443847348,-1.1039803341960676e-07,34.80133333333333,0.011175369742827946,-5.347223672749745e-06,64.86333333333333,0.4365801440998245,1.2600000000000051,0.0006145140555864963
S071,16550.0,16579.984375,N2,-0.014249999999999978,11.932792316064724,-27.05,23.74,50.79,1.225,76.86693514498286,875.0,901.9938151041666,0.7924057679255413,0.6586727764139709,0.6876862121555797,62.47242813533922,0.466473873733277,64.89992295835181,0.13020833333333334,88,0.24659950833333338,0.000842573725714191,-6.645162392893448e-08,34.80466666666667,0.010241527663825611,6.944446328246937e-06,64.35433333333332,0.5357902782080152,2.009999999999998,-0.0006619099017767757
S071,16580.0,16609.984375,N2,-0.14129687500000002,11.626976231456966,-32.53,23.09,55.620000000000005,0.92,72.46300990547654,906.25,912.0035807291666,0.7323857514239943,0.6053544358931845,0.6478597241858937,62.4347533336925,0.44195719359864577,64.319514923544,0.11875,70,0.24683429166666668,0.001037808575764603,3.221539502370744e-07,34.79933333333334,0.011234866364236283,1.3888892656487657e-06,61.52766666666666,0.3413081045363888,1.3699999999999974,0.00010059030506464608
S071,16610.0,16639.984375,N2,0.0951302083333334,11.59894606759076,-29.18,22.2,51.379999999999995,1.55,99.65890853726046,921.875,920.9065755208334,0.6623525779371587,0.6025985396596975,0.6269933490255079,62.415347797020296,0.41756362029488264,63.75735251718032,0.19270833333333334,103,0.2471650916666667,0.0009342172302328178,-4.37398339138001e-07,34.80466666666666,0.012578641509409341,2.2222228250386715e-06,62.91299999999999,0.40699836199506545,1.6999999999999957,0.0006866321307053297
S071,16640.0,16669.984375,N2,-0.13931770833333335,12.213061753674278,-25.84,23.73,49.57,0.865,106.2535974105486,953.125,983.4879557291666,0.6955681880065151,0.6154125761543136,0.6314115579838205,62.40554574547003,0.4107231955719078,63.88270501473775,0.18958333333333333,109,0.24684497500000002,0.0007787510670137133,-4.074712476864273e-07,34.80666666666668,0.011642832797715713,4.861112429774249e-07,63.85166666666667,0.895358711479496,2.520000000000003,-0.0014191323294087278
S071,16670.0,16699.984375,N2,-0.06796354166666672,11.75266127081809,-30.64,21.88,52.519999999999996,1.4049999999999998,70.12690739749023,906.25,915.8447265625,0.6918980223008944,0.6325164345141994,0.6471684787831956,62.43535412676457,0.41394049351052364,63.88270501473775,0.11354166666666667,74,0.24673823333333336,0.0007743571821553364,1.1454082968230024e-07,34.79933333333334,0.011234866364236255,4.722223503207501e-06,62.04233333333333,0.4252190285279136,1.25,-0.0005319793109752907
S071,16700.0,16729.984375,N2,0.1779218750000001,11.634891347622453,-28.34,23.74,52.08,1.4649999999999999,89.14692764222725,1015.625,955.56640625,0.7758703670001121,0.6793000571973576,0.6799769897556991,62.44740107563089,0.44629836726828986,64.10148204214939,0.12916666666666668,89,0.24671690000000002,0.0007610343224848659,2.0058425580084762e-07,34.802,0.012220201853216399,-8.333335593890175e-07,63.559999999999995,0.803873953635352,2.289999999999992,0.0012515975617397891
S071,16730.0,16759.984375,N2,0.052994791666666624,11.593642566437271,-28.71,20.97,49.68,1.5150000000000001,138.3837179554204,906.25,891.3248697916666,0.7675542586231644,0.6480606753143481,0.690428579408391,62.45034532958394,0.4543693971278495,64.45153217728807,0.11979166666666667,79,0.2472397916666667,0.000881944923600038,5.899782416390592e-07,34.797333333333334,0.010934146311238818,6.736112938399275e-06,62.81033333333333,0.21242227336657155,0.8999999999999986,-0.00027906257570056936
S071,16760.0,16789.984375,N2,-0.023187500000000014,11.414980460007094,-26.44,24.89,51.33,1.26,86.79318789221678,953.125,942.1305338541666,0.7621519868383646,0.6843361544023684,0.6760015396411624,62.45741947716679,0.4377049080837874,64.20280367709809,0.11458333333333333,76,0.2481574416666667,0.0008180761761172,2.937233869692324e-07,34.802,0.013266499161422172,-3.1944453109929773e-06,63.08433333333333,0.33687468820847266,1.1999999999999957,0.0005800348795667535
S071,16790.0,16819.984375,N2,-0.079984375,11.890979430756431,-27.91,24.11,52.019999999999996,1.0750000000000002,96.27288930139882,968.75,959.0576171875,0.6677847070205754,0.5882198603980203,0.5924290862392074,62.42569532954135,0.38764798027681635,63.647466563878254,0.19270833333333334,108,0.24853085833333335,0.0007563689718630808,1.4838263573747576e-07,34.80733333333334,0.01339983416149461,8.055557740765693e-06,64.035,0.47317192083498183,1.3599999999999994,-0.000638993228893561
S071,16820.0,16849.984375,N2,-0.08001562499999999,11.649034243311297,-29.57,23.06,52.629999999999995,1.01,110.77588148310397,1046.875,1032.0149739583333,0.8970219827295204,0.6959323469973371,0.7623861481486195,62.46901066382922,0.488192259658101,65.40642170307133,0.13541666666666666,82,0.24869095,0.0007928116090850295,-2.1146837333668803e-07,34.814,0.010832051206180174,-8.333335593889683e-07,62.38133333333334,0.4455762810363924,1.6700000000000017,-0.0007836807681425691
S071,16850.0,16879.984375,N2,0.1472916666666667,11.519965651095951,-26.73,22.37,49.1,1.455,62.072299258353894,890.625,917.6106770833334,0.7166174583396795,0.6133205600458866,0.6749799058223058,62.42408340497305,0.4371529659452929,64.319514923544,0.12395833333333334,81,0.2485735916666667,0.0008547605853476627,3.567919804665713e-07,34.80466666666667,0.012578641509409341,4.861112429772839e-06,61.48266666666666,0.31396319671083905,1.1299999999999955,0.000416597335231483
S071,16880.0,16909.984375,N2,-0.027901041666666633,11.830344947800857,-27.93,26.19,54.120000000000005,1.07,85.80736421727696,843.75,879.833984375,0.818375523988767,0.6140675802023386,0.7014300558600899,62.43585295012158,0.46288917765944154,64.89992295835181,0.11979166666666667,78,0.24908582500000004,0.0008739934750185518,-9.167255090943619e-08,34.812000000000005,0.011944315244778647,3.4027787008412313e-06,63.25366666666667,0.3930096125485429,1.25,0.0006680904590089135
S071,16910.0,16939.984375,N2,-0.10942708333333334,11.533266778689946,-27.88,23.07,50.95,1.405,89.56061821908618,890.625,933.349609375,0.6929510852846846,0.5749311175528383,0.6377442002327858,62.398685516421715,0.3964477553253816,64.20280367709809,0.27395833333333336,149,0.24871231666666668,0.0009303345901997942,-1.976606438966599e-08,34.80733333333334,0.008537498983244504,-1.3888892656499007e-06,63.80766666666667,0.21725075118141415,0.9799999999999969,-8.503474528937234e-05
S071,16940.0,16969.984375,N2,0.08168229166666671,11.718341874364226,-24.19,22.52,46.71,1.205,76.43306803268392,968.75,958.7239583333334,0.6892016504119499,0.6033723226352219,0.637036868809194,62.40995595518447,0.42389779263536953,63.796551630946325,0.19270833333333334,108,0.24866964166666666,0.0008637337243602414,-8.872333135941214e-08,34.80133333333334,0.011175369742827946,8.125002204048807e-06,60.957,0.942415867155613,3.0900000000000034,-0.001321354525107021
S071,16970.0,16999.984375,N2,-0.0113125,11.553032481878676,-28.26,22.25,50.510000000000005,1.07,83.98376780051416,859.375,907.3079427083334,0.7766943564001795,0.6454434306910423,0.7038761419908255,62.427779274540214,0.4603891643167027,64.319514923544,0.14270833333333333,89,0.24850954166666667,0.0008095860042415994,2.6180150330986856e-07,34.805333333333344,0.011175369742827509,7.638890961074836e-07,62.010666666666665,0.4294176935753291,1.4199999999999946,0.0007290974200025545
S071,17000.0,17029.984375,N2,-0.10882812499999997,11.564134403928625,-26.21,20.44,46.650000000000006,1.295,74.13152019092462,906.25,918.896484375,0.7349886620440709,0.6181912109241678,0.6491982234520772,62.41718056043192,0.4266488248815072,64.10148204214939,0.19895833333333332,113,0.24923535000000002,0.0011875879241134086,1.0278027961704602e-06,34.80466666666668,0.012578641509409341,9.722224859555151e-07,63.45366666666666,0.5878349163573805,1.6400000000000006,0.001024618333501066
S071,17030.0,17059.984375,N2,0.16151041666666663,11.682588585239781,-28.03,25.18,53.21,1.54,60.746648310511176,859.375,879.4026692708334,0.7182146254873183,0.6037633351989466,0.6368656634360882,62.41902707073937,0.42261236254040535,64.2339474110069,0.21354166666666666,130,0.24938471666666667,0.0008687747040452393,-7.294151284220739e-07,34.80933333333334,0.010934146311237736,3.958334407099943e-06,64.57600000000001,0.3725730353456446,1.230000000000004,0.0006343057276219963
S071,17060.0,17089.984375,N2,-0.06479166666666673,11.818503045116607,-29.81,23.05,52.86,1.08,50.45141780030111,890.625,910.0504557291666,0.7002905832878712,0.5736160503890114,0.634195376868727,62.40116507864829,0.41308412454537713,64.10148204214939,0.20729166666666668,122,0.24908585000000003,0.0009046929741630583,5.703608318036103e-07,34.81066666666667,0.01093414631123743,7.4305575712233e-06,64.60866666666666,0.7740918693683737,1.9400000000000048,-0.0013535420338384434
S071,17090.0,17119.984375,N2,0.11496874999999994,11.97638543651729,-29.5,24.07,53.57,1.315,88.82302851069869,921.875,954.2643229166666,0.7323590829565023,0.613505410643532,0.6600378448219634,62.42812754506223,0.426633586865968,64.68384651518491,0.13958333333333334,94,0.24944875833333338,0.0007255602202876695,-3.397069063875082e-07,34.81933333333333,0.01209223809814368,6.180557232138639e-06,62.75599999999999,0.6411427298191877,2.1400000000000006,-0.001146389199866862
S071,17120.0,17149.984375,N2,-0.21453645833333332,11.846117788546977,-26.24,22.05,48.29,0.635,94.88824493685767,1062.5,1028.1331380208333,0.6791147411131805,0.5394334975359696,0.6183316135982375,62.394914555193346,0.3961430509157938,63.647466563878254,0.25,135,0.24939537500000003,0.0008168293483800676,6.94987167694019e-09,34.81966666666666,0.011685698761970757,-2.1180561301146806e-06,63.21766666666667,0.9953045876626029,2.720000000000006,0.0017096879637825448
S071,17150.0,17179.984375,N2,0.07009375000000002,12.274210687944228,-28.02,25.2,53.22,1.0550000000000002,78.61305210456598,953.125,1003.6783854166666,1.0682193898870005,0.7040426111137655,0.8786604980499199,62.47958340169075,0.5586363914347229,65.40642170307133,0.058333333333333334,34,0.24976900000000005,0.000826881944415287,-4.87602996854113e-07,34.812000000000005,0.014696938456699175,-1.0972225198630117e-05,65.38366666666667,0.6976889628544296,2.0799999999999983,0.0012091322724425667
S071,17180.0,17209.984375,N2,0.045609375000000035,11.931308679946309,-26.83,22.49,49.31999999999999,1.44,60.73716263125298,953.125,925.7731119791666,0.6101277402110151,0.45299447353754274,0.5715466574105934,62.36537022259436,0.35380832674516377,63.647466563878254,0.19270833333333334,109,0.24990777500000003,0.000856065782738106,-3.5277548632147573e-07,34.82066666666666,0.012364824660659654,-5.694445989160598e-06,65.56766666666667,0.3389462428698028,1.1899999999999977,-0.0004026737203433479
S071,17210.0,17239.984375,N2,0.05363020833333329,12.100030531070468,-28.71,25.49,54.2,1.05,93.89878758015749,1015.625,965.4541015625,0.780357823907298,0.6458165320395225,0.7205773871232245,62.41282538406776,0.46955039970920437,64.2339474110069,0.146875,91,0.24936335000000004,0.0009055521395811525,-1.1842581337505862e-07,34.802666666666674,0.012092238098145523,-5.0694458196196355e-06,64.52866666666667,1.288018460875291,3.999999999999993,-0.0021845839259396482
S071,17240.0,17269.984375,N2,0.008734375000000027,11.825639866068277,-26.58,23.94,50.519999999999996,1.3050000000000002,92.5222805184596,921.875,936.4013671875,0.6896934705601708,0.575971966850143,0.6529970634930571,62.39578370686628,0.430029773340757,64.319514923544,0.21145833333333333,122,0.25071907500000007,0.0008981602693144564,4.917729198602802e-07,34.794000000000004,0.010832051206181923,-1.944444971909205e-06,59.81000000000001,0.9507400626178889,3.1200000000000045,-0.0016769448993448626
S071,17270.0,17299.984375,N2,-0.12392187499999999,12.074729137064724,-33.59,24.24,57.83,0.595,179.7058050073748,1234.375,1143.8395182291667,0.7123781572233169,0.5377260506573542,0.6797854734624413,62.445686919235435,0.46068085644491913,65.01538279515087,0.20104166666666667,137,0.25071907500000007,0.0007667444615874347,-1.998783094287958e-07,34.79466666666667,0.008459051693634336,7.638890961071875e-07,57.86566666666666,0.3555716836619894,1.3499999999999943,0.0001607986547305379
S071,17300.0,17329.984375,N2,0.14381770833333332,12.522031882100967,-25.01,20.88,45.89,1.935,120.77167269586303,984.375,1000.9847005208334,0.5250496008315151,0.4898979485566356,0.5268969944005502,62.415034277145814,0.3735476534252871,63.387695966961914,0.259375,138,0.25103932500000004,0.0007302043339881071,4.4228983352046813e-07,34.78800000000001,0.013012814197295127,-5.069445819619094e-06,60.36300000000001,0.649528803569686,1.9000000000000057,0.0010591322317524514
S071,17330.0,17359.984375,N1,-0.11436458333333335,12.118486837971108,-29.84,43.47,73.31,0.23,229.60089033118874,1140.625,1299.5442708333333,0.9500542519231322,1.4156916834919717,1.0136546057322593,62.39772306309727,0.6065529993490207,67.08203932499369,0.05520833333333333,33,0.251146075,0.0009378824389949019,-9.082092307425342e-07,34.78800000000001,0.011944315244778646,2.8472229945799285e-06,61.832333333333324,1.4118774340886984,4.769999999999996,0.0018899657904638092
S071,17360.0,17389.984375,N2,0.1050572916666667,12.422933618281055,-31.42,26.61,58.03,1.375,201.32229314096213,906.25,948.73046875,0.5306205421223553,0.10172129679778086,0.4398732752326389,62.579460105206245,0.33498448854590956,63.75735251718032,0.010416666666666666,9,0.2503027500000001,0.0007502938007874013,4.325600131727486e-07,34.77266666666666,0.013399834161494116,-3.888889943817546e-06,68.60766666666667,1.3789964547533198,4.420000000000002,0.002340452023777134
S071,17390.0,17419.984375,N2,0.06982812500000003,12.396826111013617,-30.32,22.56,52.879999999999995,1.0750000000000002,70.5854960699117,906.25,929.0201822916666,0.5691695644142927,0.28674417556808757,0.6027677770547755,62.49160538487097,0.4321532385211872,63.75735251718032,0.053125,41,0.2507724500000001,0.0009381861475741435,-8.78463779965228e-08,34.764,0.013808210118139028,-1.2430558927560047e-05,70.07766666666666,0.8168340644763104,3.539999999999992,-0.0005258681982064334
S071,17420.0,17449.984375,N2,-0.07833333333333335,11.360075430415161,-28.02,21.97,49.989999999999995,0.605,114.54974722641715,1046.875,954.0120442708334,0.6023310836865386,0.19680609464365906,0.5688062777406928,62.51057468205175,0.41197037065440756,64.04685784642366,0.05,41,0.25006790000000007,0.0008389218914773924,-3.252539944807935e-07,34.751999999999995,0.014000000000002188,4.930556893055483e-06,64.01866666666666,1.6576504121463274,5.300000000000004,-0.002628056268461444
S071,17450.0,17479.984375,N2,-0.10627083333333336,11.45554127875018,-31.32,22.26,53.58,0.645,114.50600731456471,906.25,886.1572265625,0.45727149727729827,0.07216126567549165,0.48506223648506064,62.511852818182106,0.3757311600126091,63.15853069855251,0.021875,19,0.24958752500000003,0.0008951100487509932,-5.810092721921872e-08,34.74333333333333,0.01192569588000008,-7.500002034506562e-06,65.103,0.9686525004699401,3.0800000000000054,0.001359965646692069
S071,17480.0,17509.984375,N2,0.03495833333333329,11.39521475309251,-24.17,24.57,48.74,0.765,196.83664325011316,1125.0,1118.4000651041667,0.5588267409393441,0.30927327171487395,0.6114326016732252,62.413121917835475,0.43436252455571334,64.04685784642366,0.04375,34,0.24896842500000005,0.00075886072132836,-2.598770236211539e-07,34.720333333333336,0.013287420951995104,-1.4131948277978885e-05,65.63433333333334,0.4792541659240496,1.3100000000000023,0.0003585764861589867
S071,17510.0,17539.984375,N2,-0.021677083333333423,10.756333483110845,-24.44,20.07,44.510000000000005,0.405,224.51515174849058,1375.0,1235.4329427083333,0.6723681975343239,0.28135800395383975,0.6487033006099339,62.50052901197408,0.4524450869655267,64.69930447848725,0.06979166666666667,48,0.249608875,0.0008838358497905623,7.352964234202561e-07,34.70333333333333,0.01885618083164145,-1.8819449549546867e-05,61.88633333333334,1.637309751458845,4.8500000000000085,-0.002489410397518012
S071,17540.0,17569.984375,N2,0.13944270833333336,11.900063145484117,-29.16,24.98,54.14,1.2149999999999999,132.14910139372589,906.25,948.1282552083334,0.5083290641897235,0.159884805537195,0.41583119363176957,62.62376508615315,0.32513551170503124,63.592452382338585,0.019791666666666666,15,0.25043085000000004,0.0009055521395811537,2.118320887131327e-07,34.68733333333333,0.016316317667361024,-6.111112768856957e-06,63.22633333333333,0.5333321874987691,2.030000000000001,0.0008860071847892756
S071,17570.0,17599.984375,N2,-0.05636458333333332,11.808532486811348,-24.43,21.03,45.46,0.395,195.27731599733545,1328.125,1183.1461588541667,0.7313627643348789,0.3647901199281886,0.7053544900241453,62.48415401213996,0.48442135980959466,64.2339474110069,0.078125,50,0.25019600000000003,0.0007457234406936695,1.0063414188209177e-07,34.676,0.014966629547097092,-1.215278107443164e-05,64.98466666666667,2.1933775071539525,6.050000000000004,0.0036143759804622326
S071,17600.0,17629.984375,N2,0.001645833333333376,10.926313441240493,-25.17,19.52,44.69,0.51,255.9964669001594,1312.5,1265.2425130208333,0.7262374198088085,0.28025286201333727,0.5885176986270015,62.569124472485676,0.42631687736616314,64.10148204214939,0.04375,30,0.2503027500000001,0.0008685541074107043,-1.1675784417259265e-07,34.66633333333333,0.012512216252749847,-8.99305799507848e-06,64.28,1.9828867844634996,5.740000000000002,-0.003515695398137856
S071,17630.0,17659.984375,N2,-0.04196354166666671,11.867150776439733,-26.74,22.97,49.709999999999994,0.94,176.72228864249962,890.625,951.4811197916666,0.5812079957941046,0.22143932185564713,0.4453061037552334,62.61879089698604,0.34542476200261046,63.75735251718032,0.05416666666666667,41,0.25028140000000004,0.000833470749336777,3.586133785301086e-07,34.657999999999994,0.008717797887081404,-2.7083340680159482e-06,62.181333333333335,1.1140009974062959,3.6999999999999957,-0.0014548615057675533
S071,17660.0,17689.984375,N2,0.11197395833333339,11.922743161240419,-29.26,23.54,52.8,0.41500000000000004,111.09762321834624,1078.125,976.953125,0.673867362484801,0.2925507434617113,0.6771955035290769,62.5001075780325,0.45994862144024257,64.68384651518491,0.07083333333333333,43,0.25094325,0.0008685541074107127,-8.161929297398472e-07,34.65333333333333,0.010110500592067972,4.097223333664615e-06,62.59199999999999,0.9180355839145531,2.8500000000000014,0.001603472657192019
S071,17690.0,17719.984375,N2,-0.06764583333333332,11.20894971568401,-23.16,20.7,43.86,0.56,221.8981936693987,1062.5,1111.3037109375,0.8038535659904456,0.36638098482545006,0.7485634390098292,62.48169980612762,0.5130604288168912,65.99242380758567,0.03958333333333333,21,0.25064435000000007,0.0008903231590271079,2.58535226382171e-07,34.64733333333332,0.01030641655582482,-1.1319447515038848e-05,63.950666666666656,0.0808262883527926,0.3199999999999932,7.05555746949799e-05
S071,17720.0,17749.984375,N1,0.046640625000000005,10.225322392840056,-24.39,18.8,43.19,0.71,344.40713205222556,1375.0,1323.53515625,2.141236733353855,1.1457575732530274,2.0093261290929245,62.60072819198693,1.5096483584946454,72.38784428341543,0.052083333333333336,22,0.2511033750000001,0.0010640249688682259,-8.737378672249073e-07,34.63699999999999,0.012423096769054709,-7.465279802863833e-06,63.29566666666667,0.5147859317770408,1.5,-0.0008003127170987199
S071,17750.0,17779.984375,N2,-0.060989583333333305,11.400923818557782,-26.33,25.12,51.45,0.645,299.1229889844555,828.125,916.5690104166666,0.5628384398519704,0.17780185112615923,0.49972214501883166,62.34274462201029,0.37207928564678944,63.93746945258312,0.04479166666666667,35,0.24959820833333335,0.0010185343219207498,-6.543901514730246e-07,34.62333333333334,0.009428090415822108,-5.000001356337955e-06,62.87800000000001,0.1841086635658407,0.6499999999999986,-0.00029583341358328254
S071,17780.0,17809.984375,N1,-0.1159166666666667,10.735072581328405,-23.64,19.45,43.09,0.43,122.87020802071241,1156.25,1158.056640625,0.8909240482343163,0.5972157622389639,0.8227214958430478,62.40073724605798,0.689256470238909,69.38299503480663,0.08333333333333333,57,0.2490538333333334,0.0009469579305450816,-1.698273030130484e-07,34.61933333333333,0.012364824660661697,-9.861113786110175e-06,64.77166666666668,1.1069480064072055,3.1700000000000017,0.0019475352505249682
S071,17810.0,17839.984375,N2,0.025786458333333276,10.921666849767787,-25.44,23.26,48.7,1.0750000000000002,156.56509079167503,859.375,903.2063802083334,0.6332236747170957,0.32499332258097585,0.5569595973278093,62.31955475695585,0.3653923390673932,63.56886030125127,0.04583333333333333,38,0.24913925,0.0009781735722764126,-5.328117764788878e-07,34.60866666666667,0.011469767022722982,2.3611117516029482e-06,68.23333333333333,0.9086375637305675,2.8799999999999955,0.001422500385877926
S071,17840.0,17869.984375,N2,-0.004380208333333346,10.966918238845631,-29.16,25.88,55.04,0.615,191.95936493113044,1125.0,1194.7591145833333,0.743909734247599,0.4097551775823651,0.6846524044583175,62.275207670385285,0.47496625534747705,64.97691897897283,0.08541666666666667,54,0.2488083416666667,0.0007798907348237217,3.853950698227771e-09,34.60533333333334,0.015216949614016588,-5.208334746184703e-06,69.13433333333333,2.2160109556488106,6.890000000000001,0.003202327257575753
S071,17870.0,17899.984375,N2,0.13923437500000008,10.68290670725443,-27.45,20.41,47.86,1.13,294.094024812466,1140.625,1169.8649088541667,0.6057441689887645,0.20219874281810515,0.5040805711612204,62.36055240788417,0.3694636430440668,63.56886030125127,0.06041666666666667,46,0.24845620833333334,0.0008663133660886674,-5.235895517548474e-09,34.596666666666685,0.010749676997729848,6.944446328245431e-07,74.26633333333334,0.7838217626192551,2.8499999999999943,0.0001415625384012971
S071,17900.0,17929.984375,R,-0.036364583333333374,10.871640367660515,-25.37,23.59,48.96,0.525,278.28515212545364,843.75,952.3763020833334,0.6129382998108374,0.33181784400062364,0.5652699929507629,62.301473344953656,0.398385133628565,63.56886030125127,0.051041666666666666,38,0.2483815166666667,0.0008522973755614151,7.245227659838695e-09,34.57933333333334,0.012364824660662285,-5.416668136032365e-06,72.25666666666666,1.5277201605297002,4.820000000000007,-0.0024475006639270483
S071,17930.0,17959.984375,R,0.0454479166666666,10.92385897966941,-26.35,19.53,45.88,0.65,290.2036612682983,953.125,1127.0914713541667,0.5990117729783504,0.1825622991078814,0.5168640416008836,62.42203440652445,0.3926880237674576,64.34283176858165,0.05625,43,0.2484135416666667,0.0008793346906973907,-4.060328792406879e-07,34.572,0.010770329614270692,-3.6805565539709948e-06,65.25699999999999,2.219495663433474,6.720000000000006,-0.0037487162946821533
S071,17960.0,17989.984375,R,-0.05070833333333334,9.275993018401348,-20.08,21.46,41.54,-0.33499999999999996,398.2143037912638,1375.0,1200.3092447916667,0.6970890615425135,0.5353761333554817,0.6372335704150315,62.29744997041613,0.40519812047004444,64.03124237432849,0.06979166666666667,54,0.24804010833333337,0.0010796499725669805,2.239863888851962e-07,34.56466666666667,0.012578641509410772,-1.1111114125195458e-06,60.772666666666666,0.6704870534834275,1.7299999999999969,-0.00107326418003043
S071,17990.0,18019.984375,R,-0.15728124999999998,10.605234041110633,-24.44,20.84,45.28,0.355,122.12785075164192,1000.0,997.4039713541666,0.5332641556697976,0.139283726964862,0.41002519400912696,62.46497526876677,0.330388164169361,63.56886030125127,0.10416666666666667,69,0.24846690833333338,0.0010322394101808677,-2.940039860036725e-08,34.565333333333335,0.013349989596335944,-1.27083367806923e-05,61.471999999999994,1.1900543404959847,4.399999999999999,0.002020278325813347
S071,18020.0,18049.984375,R,0.15551041666666662,9.716947927777605,-22.62,20.85,43.47,0.86,326.70172806481185,1343.75,1185.498046875,0.6924059490384876,0.3890747013927902,0.6438275303906232,62.32034658643851,0.42010079685285245,63.96092557178953,0.09270833333333334,67,0.24782668333333338,0.0007923730180427686,-4.3898015380320434e-07,34.552,0.010770329614269242,-6.5972240118331984e-06,69.58966666666667,2.3498290481555375,7.240000000000009,0.004156424738613483
S071,18050.0,18079.984375,W,0.01091666666666667,10.71465353661621,-22.98,20.89,43.870000000000005,0.06,295.92937602898917,828.125,1037.9069010416667,0.6380503819688188,0.26562295750848713,0.4913134324327892,62.45561186765705,0.35602608037881533,63.56886030125127,0.1125,84,0.2479440833333334,0.0009871738413549766,4.6435993499346793e-07,34.53933333333334,0.015040685563570034,-6.2500016954205936e-06,70.657,1.2266326535139473,4.22999999999999,-0.002097743624604933
