participant_id,window_start_time,window_end_time,sleep_stage,BVP_mean,BVP_std,BVP_min,BVP_max,BVP_range,BVP_median,SDNN,median_nni,IBI_mean,x_std,y_std,z_std,mag_mean,mag_std,mag_max,movement_density,burst_count,EDA_mean,EDA_std,EDA_trend,TEMP_mean,TEMP_std,TEMP_slope,HR_mean,HR_std,HR_range,HR_trend
S079,8992.0,9021.984375,W,0.8905572916666673,144.03679780467505,-664.56,564.77,1229.33,3.37,42.97503492842014,890.625,892.7571614583334,5.668064223342088,2.088035318919571,15.450671639875852,64.1869928824521,2.6647285117583985,83.55237878121723,0.06979166666666667,28,0.14508350833333333,0.006052765241325425,9.164782651036962e-06,34.64333333333333,0.024944382578492033,3.7291676782679424e-05,71.62100000000001,0.5719227803354803,1.75,0.000602604330133552
S079,9022.0,9051.984375,W,-1.1642760416666667,71.1636606805401,-429.85,431.77,861.62,1.47,33.23226447897505,890.625,899.0315755208334,0.4217193642959999,0.4564164460470527,1.9099971708639607,64.20872362399463,0.3808134855894208,66.91786009728644,0.04895833333333333,40,0.15985441666666667,0.0016557420218909623,6.510401071614894e-07,34.73533333333333,0.03667272677193451,5.6736126501772504e-05,70.53099999999999,0.4555388750333673,1.3799999999999955,-0.0006901737983327351
S079,9052.0,9081.984375,W,0.2642864583333332,54.566808430614294,-365.6,503.53,869.13,4.18,21.45174264772223,890.625,877.392578125,1.962140581029357,2.1090123144989774,5.0066097803858804,64.29705021179852,0.64449649194149,71.96526940128828,0.1125,80,0.14713256666666666,0.004525519724726528,-5.839104448541787e-06,34.826666666666675,0.012736648783028664,1.0694447345499468e-05,69.89866666666666,0.30761158770255814,1.1299999999999955,-0.0005375695902695276
S079,9082.0,9111.984375,N1,0.031630208333333375,21.40085252630926,-47.18,42.11,89.28999999999999,3.2,23.35051040545375,875.0,877.3111979166666,0.18181186857726192,0.12401959270615269,0.5627160079076794,64.2122676257611,0.15909543560784592,64.93843238021688,0.022916666666666665,18,0.14517945833333332,0.0015479175683039133,-5.513870853372094e-07,34.87199999999999,0.027976180344474542,4.4444456500772395e-05,68.77433333333333,0.15589918394769103,0.6200000000000045,-0.00020781255637276755
S079,9112.0,9141.984375,N1,0.04997916666666658,21.663517787197737,-56.27,39.24,95.51,3.9349999999999996,58.51486603952476,875.0,883.7320963541666,0.5844474108434965,0.4453645802878805,1.0687921328602155,64.26076077670683,0.3671957682075599,66.24952830020754,0.26666666666666666,146,0.146695,0.0017524954588623986,1.5386605736383905e-06,34.937999999999995,0.022861904265977416,3.277778666932341e-05,68.46666666666667,0.10412599205876653,0.4000000000000057,-0.00010125002746583155
S079,9142.0,9171.984375,W,-0.2484947916666667,22.110854660733896,-77.24,51.56,128.8,3.56,55.787385851817604,859.375,859.9283854166666,0.8083058146088989,0.8276865977933113,3.1085844891271117,64.28072407590649,0.388602981425183,69.2098258919931,0.028125,18,0.14815725,0.0017417159510570734,-8.574364305111817e-07,34.995,0.0182117178395302,2.1840283702333552e-05,68.14333333333335,0.1549049888013787,0.5899999999999892,0.0001397917045875941
S079,9172.0,9201.984375,N1,0.4973802083333341,165.57556505943526,-1390.62,834.15,2224.77,3.4000000000000004,5.961209969926873,890.625,888.9322916666666,10.229445642835307,4.7882845854056475,22.93820947661468,64.39467637698539,2.964130727546962,84.27336471270148,0.0625,31,0.14922445,0.006407374544031275,4.810103735379703e-06,35.01033333333333,0.03071192312803249,-3.913195505966615e-05,69.04666666666668,0.4932635085721314,1.6300000000000097,0.0007827779901198967
S079,9202.0,9231.984375,N1,-0.5166041666666668,15.895078704114134,-35.06,28.99,64.05,0.92,23.96577222027805,875.0,875.0895182291666,0.09090593428863095,0.3852251776558744,0.21668419400259806,64.34216039946044,0.2139395477775074,64.70703207534712,0.0020833333333333333,2,0.15465669166666668,0.001584675933200185,5.341713688615911e-07,34.973,0.02084066537645415,2.9687508053251588e-05,70.46933333333332,0.19887908107412594,0.7199999999999989,-0.00019013894046737576
S079,9232.0,9261.984375,N1,0.2835468749999998,107.60052008699863,-714.09,691.28,1405.37,0.845,21.609386140984917,875.0,887.1744791666666,8.460471815054603,5.688913133357627,19.095391023315894,64.25929991648574,1.543359185824106,76.05918747922567,0.04895833333333333,15,0.14850934999999998,0.00489706926751433,-5.661455528823655e-06,34.998666666666665,0.014544949486181034,-7.0833352548113125e-06,68.962,0.939128674179776,3.019999999999996,-0.0015725698710313209
S079,9262.0,9291.984375,N1,-0.08124999999999999,15.312773456741922,-46.22,42.2,88.42,2.95,44.98862793951609,890.625,899.21875,0.5159773627678728,0.4274629918191749,1.1340372928599933,64.01606223327957,0.3535903631012225,65.83312236253116,0.24895833333333334,90,0.14734609166666665,0.001848612524732321,1.620690326793161e-06,34.99100000000001,0.01075484386993414,9.548613701338204e-06,65.90466666666667,0.44308564509459025,1.3499999999999943,-0.0007480557584786682
S079,9292.0,9321.984375,N1,0.032557291666667716,73.99757281120674,-446.72,544.04,990.76,2.72,45.92370746722361,859.375,861.8001302083334,3.244036830339203,5.008555072566394,13.71779039924069,64.3171006280448,1.1762157406803433,72.92461861401813,0.040625,22,0.1492351583333333,0.0026349341863881937,-3.7695995468748344e-07,35.03966666666667,0.012242911781469638,8.020835509123334e-06,66.22566666666667,0.6546382376719402,2.219999999999999,0.0010719794574597073
S079,9322.0,9351.984375,N1,-0.18893229166666656,39.755582594822435,-283.06,126.12,409.18,6.470000000000001,37.66389898383234,843.75,846.7529296875,0.16532992583014125,0.40413981869590077,0.7782016918922039,64.07156123502124,0.22739299371235086,65.26101439603893,0.13020833333333334,76,0.14951260000000002,0.0027762384365660414,3.841047916950927e-06,35.074000000000005,0.01743559577416433,1.8750005086266242e-05,69.02099999999999,0.5100284305801001,1.9399999999999977,0.0008974655212308811
S079,9352.0,9381.984375,N1,0.22876562499999994,29.401102478749017,-63.99,51.14,115.13,6.22,54.9326889126441,843.75,842.7652994791666,0.2776075867519154,0.208830136813791,0.5595408273754472,64.15994328766075,0.2673368489746686,66.70082458260917,0.034375,21,0.1518712,0.004561223913965784,-2.37155793499293e-06,35.09933333333334,0.015260697523012078,9.027780226717828e-06,71.12566666666666,0.7337469288218915,2.0500000000000114,0.0012212156090537162
S079,9382.0,9411.984375,N1,0.00034895833333337123,91.55782386656156,-1209.53,398.49,1608.02,6.789999999999999,31.278231901693193,875.0,867.3095703125,0.6666332999462465,0.6384312030608049,2.0142450595005124,63.943954989913784,0.6001696270337562,69.32532004974806,0.16770833333333332,117,0.15635376666666667,0.0017149044421061882,-1.5417712515655612e-07,35.11533333333333,0.008844332774282449,-5.972223842292556e-06,70.39866666666667,0.34190382013399945,1.4000000000000057,-0.0003937501068115531
S079,9412.0,9441.984375,N1,-0.15124479166666666,47.813701463798466,-365.1,349.33,714.4300000000001,6.195,26.28229359860391,906.25,910.2945963541666,2.0830726399393487,1.277815094186383,7.2813181774347475,64.24197920746141,1.128412974680862,81.49233092751734,0.016666666666666666,8,0.15533984166666667,0.0018005805128524163,-6.487773027282146e-07,35.129666666666665,0.020572365498944825,3.281250890096103e-05,68.46766666666667,0.8389941729369884,2.430000000000007,-0.001478299012125382
S079,9442.0,9471.984375,N1,-0.2584270833333333,30.13254722929897,-63.04,49.47,112.50999999999999,5.545,33.28535680450923,890.625,891.4225260416666,0.47729594061814057,0.21358993356949718,0.5041494487418058,64.51332775357886,0.42856406675072173,64.85368146836385,0.0,0,0.1572503333333333,0.0016753207868610946,-6.917536598724007e-08,35.16266666666665,0.013646326326972474,7.291668644657692e-06,67.48033333333335,0.23078826274795963,0.6799999999999926,-0.00023961812055613128
S079,9472.0,9501.984375,N1,0.037973958333333314,31.82203967492088,-64.71,69.4,134.11,5.955,22.656564235335043,890.625,882.1858723958334,0.3701289541610239,0.5557455187378681,1.8964044469439767,64.49016995763928,0.3697686233291129,66.40030120413611,0.009375,5,0.1585524083333333,0.001690061169976962,4.755795560925472e-08,35.18066666666665,0.02128118626601785,1.944444971909022e-05,67.35133333333334,0.09447163007426689,0.28000000000000114,0.00011076391893552519
S079,9502.0,9531.984375,W,0.015244791666667012,108.18093566279401,-790.14,586.81,1376.9499999999998,6.035,16.002318687779194,906.25,905.8675130208334,3.324718033157098,2.574068568056328,11.654744606021927,64.25642999063297,1.4000582817213134,78.14089838234521,0.07395833333333333,35,0.1618715166666667,0.005466130172836072,7.604694771238822e-06,35.18766666666667,0.017451520150278555,1.3368059181874484e-05,67.46,0.14477568856683037,0.6099999999999994,-0.00018493060572119158
S079,9532.0,9561.984375,W,0.3844479166666666,26.21255216986137,-58.17,46.49,104.66,5.62,44.87762188018731,875.0,868.1477864583334,0.32714138285304106,0.5725036389986239,0.49972214501883166,64.12026135855305,0.30173107924327836,64.81512169239521,0.12916666666666668,54,0.16909688333333334,0.0016752542104773935,-9.835792598685076e-07,35.16099999999999,0.02256102834535675,-3.524306511584808e-05,66.861,0.06554133555754657,0.21999999999999886,6.572918449685048e-05
S079,9562.0,9591.984375,W,-0.37738541666666653,29.71873610825816,-85.61,120.74,206.35,4.695,32.7084622714666,890.625,894.3033854166666,0.5105643918879271,0.5398044913567216,0.9895087691206514,64.1159553179684,0.4372055172117469,70.35623639735144,0.058333333333333334,48,0.17404893333333332,0.004463515277098187,6.5889223602762474e-06,35.123666666666665,0.016428295373801714,-2.0590283363249312e-05,67.34433333333332,0.30483529250327146,1.0999999999999943,0.000542257091541093
S079,9592.0,9621.984375,W,0.48472395833333304,137.4842852486802,-764.04,659.74,1423.78,4.890000000000001,21.217040824437774,968.75,958.9274088541666,3.6104497257574746,5.444364680183845,4.991617865475137,64.1017033650999,2.0113637229683965,81.21576201698781,0.04895833333333333,24,0.15922470833333335,0.014991453348711633,-2.4301347086953962e-05,35.08800000000001,0.013999999999999955,-1.0347225029086097e-05,67.18466666666667,0.6713207545991389,2.4000000000000057,-0.0011937503238255028
S079,9622.0,9651.984375,W,-0.4381302083333332,84.93809873466753,-734.78,417.71,1152.49,1.45,52.085224753050504,906.25,921.7529296875,0.5860715124524765,0.9508767883730608,3.263869976304544,64.13130405303524,0.5222216551860339,69.60603422117941,0.04791666666666667,25,0.16345104166666669,0.0023533299506438136,3.2135023908155316e-06,35.065333333333335,0.016878651868229944,-1.4236114972905347e-05,63.638,0.7960041875936741,2.6699999999999946,-0.0013093753551907954
S079,9652.0,9681.984375,W,0.25581250000000005,25.121361327858878,-51.18,37.25,88.43,5.4,26.886226418681634,859.375,864.9007161458334,0.07216126567549166,0.13981246740425785,0.673145600891813,64.08918522928747,0.14889586769033566,64.9307323229917,0.18333333333333332,49,0.16680231666666667,0.0020580178529486944,2.2700987060814637e-06,35.06333333333334,0.012995725793080042,-6.111112768856933e-06,64.00533333333334,0.8774308456447651,2.950000000000003,0.0015698615369633064
S079,9682.0,9711.984375,W,0.012802083333333384,25.868142679558492,-54.31,45.43,99.74000000000001,4.465,40.85339549658132,921.875,916.7887369791666,0.5296657341480149,0.3914435867366104,1.3543393319407313,64.06170999874676,0.4335170544145039,67.11929677819934,0.14270833333333333,103,0.170441575,0.0016330954843614257,1.2171034117576563e-06,35.068666666666665,0.011469767022724496,-4.861112429772444e-06,67.20666666666666,0.4235747343215312,1.5100000000000051,0.0006393057289783342
S079,9712.0,9741.984375,W,-0.007255208333333248,69.61796000327934,-749.94,353.64,1103.58,2.5,22.38927789602054,921.875,915.1774088541666,4.811644945684722,2.3387843229710175,12.10365276985687,64.26957452509762,1.2808358063870373,77.33692520394123,0.06041666666666667,26,0.16302414999999998,0.004151900028199941,5.897987711042667e-07,35.088666666666676,0.02472964932132291,3.708334339283539e-05,66.55199999999999,0.4772378861741803,1.4200000000000017,-0.0007884029916457769
S079,9742.0,9771.984375,W,-0.33331770833333346,25.098908091353856,-56.72,39.8,96.52,4.075,25.993424554093885,875.0,869.5638020833334,0.3675637109362433,0.4829099708336488,0.7795892069527529,64.12632591311146,0.3457357643383498,65.22269543648132,0.13125,75,0.1664074333333333,0.0018921387225981998,1.6188641544227862e-06,35.150666666666666,0.023513589451396585,3.4722231641227606e-05,67.15400000000001,0.46217312773461894,1.5700000000000074,0.0008302780030051012
S079,9772.0,9801.984375,N1,0.2234166666666662,88.47222372488662,-661.17,443.67,1104.84,3.0,63.215709492270655,859.375,852.5960286458334,2.5192789629287895,3.6507524849813113,15.57082828109587,64.23700385804675,1.4321610737927466,76.70071707617863,0.04583333333333333,16,0.16844584166666668,0.00299433948753264,2.4662595665851728e-06,35.182333333333325,0.018917951498218316,2.395833983245407e-06,68.72633333333333,0.38250475668792583,1.2199999999999989,6.29514059655489e-05
S079,9802.0,9831.984375,N1,-0.1851302083333333,25.36101692895113,-53.59,43.24,96.83000000000001,3.825,36.53258890701064,906.25,907.8857421875,0.16134404557239376,0.49196561356517143,0.6340867229505931,64.18468933833374,0.2712401302394391,69.91423317179414,0.090625,60,0.1721705083333334,0.005620227728179458,4.81629883254634e-06,35.098,0.03807011076071795,-6.597224011833792e-05,66.80333333333333,0.5758780735151803,1.9500000000000028,-0.0010186113874271338
S079,9832.0,9861.984375,N1,0.17439583333333347,33.21354190671554,-104.19,179.01,283.2,4.35,55.199325474435604,875.0,863.1266276041666,0.3807074349703019,0.2822878228520592,0.7848804535653114,63.82222667746996,0.4359456345771064,68.9129886160802,0.053125,34,0.1862905333333333,0.004157379310602079,4.619768614303554e-06,35.008,0.02181742422927095,-3.3680564691992476e-05,66.38799999999999,0.35335911855598984,1.019999999999996,0.0005682640430403756
S079,9862.0,9891.984375,W,0.12914583333333324,51.93279394041784,-486.93,547.73,1034.66,4.99,84.8201730502973,875.0,901.1637369791666,0.8382401114090162,0.8411198718903797,2.588736788420604,63.96991529581802,1.0660184703841908,74.28324171709255,0.022916666666666665,9,0.18354759999999998,0.0028865653275129584,1.0149308308731244e-07,34.958,0.019043809142781025,-2.3611117516035902e-05,68.66266666666667,0.6690238328257728,2.299999999999997,0.000980625266011625
S079,9892.0,9921.984375,W,-0.05931770833333336,31.564044330256458,-66.21,45.31,111.52,6.93,23.669500396216293,890.625,888.1022135416666,0.1359125535858341,0.4980822597724196,0.2866760536253808,63.783821471283225,0.2564862299110728,64.73020933072904,0.026041666666666668,23,0.18167982500000004,0.0015391196870424527,-7.83227860033597e-07,34.93733333333333,0.012092238098146593,-1.5972226554968467e-06,68.72099999999999,0.25346071358956856,0.75,-0.00039677094096433847
S079,9922.0,9951.984375,W,-0.23136979166666674,28.986747996726955,-61.07,51.54,112.61,6.1850000000000005,32.901107394291834,890.625,888.6393229166666,0.03225804701500421,0.1899835519196333,0.45242282759665825,63.91602717735403,0.2231662991440083,64.5445582524197,0.013541666666666667,12,0.17986546666666667,0.0016176776972630343,-1.0666956018597024e-06,34.95,0.014605934866804443,3.888889943816608e-06,67.876,0.2796378610512773,1.0400000000000063,-0.0003493750947740607
S079,9952.0,9981.984375,W,0.3027447916666669,29.204752590500892,-59.61,42.97,102.58,6.665,22.296989019444414,890.625,894.6940104166666,0.09636964965693294,0.03225804701500421,0.27393852906871885,64.06787403662355,0.15882304829337476,64.5445582524197,0.07604166666666666,56,0.17981209166666665,0.001596952169998807,-1.7368342385075513e-07,34.970666666666666,0.01209223809814457,-4.09722333366501e-06,67.51566666666666,0.1204625345168471,0.37000000000000455,-0.0001911458851849755
S079,9982.0,10011.984375,W,0.03532812499999979,83.89046487829532,-584.94,554.98,1139.92,8.135,38.01575718268017,890.625,900.4069010416666,1.9762028246530432,1.9562655306447765,7.702677471787003,64.16959111333104,1.3555569634794111,78.3007024234138,0.04583333333333333,22,0.1776029583333333,0.0019767271452067513,3.1578632698196785e-07,34.973333333333336,0.015563490039904948,1.645833779794456e-05,67.259,0.3785529465389675,1.1700000000000017,0.00042746539373518836
S079,10012.0,10041.984375,N1,-0.03289583333333332,25.76114598272592,-59.85,44.89,104.74000000000001,4.875,18.398918690905386,875.0,881.396484375,0.05589199343873463,0.13188915142607022,0.5019395973371695,63.98624798434389,0.23422329669217,65.37583651472461,0.004166666666666667,4,0.17725078333333333,0.0015358426849959505,-5.060930192309637e-07,34.96,0.014375905768564332,-1.312500356038444e-05,67.96566666666666,0.15339889902545747,0.5,0.00023732645326781068
S079,10042.0,10071.984375,N1,-0.2554895833333334,31.473578657507446,-96.64,93.53,190.17000000000002,5.11,35.92015460574138,875.0,871.0774739583334,0.5104368618453761,0.32392986209294683,0.6704288376769668,63.956708163792804,0.29738726396909226,66.63332499583073,0.12083333333333333,100,0.1892575416666667,0.008048741464659588,9.988898760009427e-06,34.948,0.014000000000000328,-1.0208336102522215e-05,68.80466666666666,0.24902119499262515,0.8400000000000034,0.0002701389621687716
S079,10072.0,10101.984375,N1,0.03640625000000005,34.581089297198176,-141.74,166.99,308.73,5.23,22.869221384178786,890.625,892.0491536458334,0.7342678704366381,0.9755140204869772,1.7811903011438415,64.0253616815805,0.5448041325121454,69.45502141674135,0.023958333333333335,12,0.19349456666666667,0.0016330685264930615,-5.206129884475313e-07,34.922666666666665,0.014126413400279174,-1.0625002882217413e-05,68.67366666666666,0.09325532454265317,0.25,-6.170140562646654e-05
S079,10102.0,10131.984375,N1,0.18217187499999993,27.440341337725293,-82.18,58.78,140.96,6.265000000000001,71.91892700577237,921.875,896.1507161458334,0.06451609403000842,0.2382571993782256,0.232399078305449,64.13732983577253,0.15070900434396156,65.36053855347276,0.052083333333333336,40,0.19116783333333334,0.0016309902172879126,-8.752445950641786e-07,34.928,0.014000000000001477,3.81944548053542e-06,67.68666666666667,0.7529069589855628,2.1599999999999966,-0.001319653135756601
S079,10132.0,10161.984375,N1,0.0753802083333334,26.66860276424523,-53.56,42.68,96.24000000000001,5.655,33.18859206145204,906.25,912.6546223958334,0.12401959270615269,0.4061164310337068,0.41962362227953753,64.36883572786084,0.2639198861999019,64.56779382943171,0.0,0,0.19041002499999996,0.0017493312267954444,6.889563500858285e-08,34.94266666666666,0.012092238098146057,1.3194448023666396e-06,67.30366666666667,0.27292835852818376,0.9599999999999937,-0.0003542014849721927
S079,10162.0,10191.984375,W,-0.6934427083333338,46.49773079333022,-285.15,157.09,442.24,4.645,22.719022235874647,921.875,917.1875,5.041093179332072,4.198345718355426,23.100826329015447,64.3309623419438,1.5629808570191275,82.516664983505,0.046875,26,0.18024970833333331,0.01472809061645797,-2.0651480645475443e-05,34.95,0.014605934866804766,1.1111114125194171e-05,66.74366666666667,0.1825830100407928,0.6800000000000068,5.8854182631887365e-05
S079,10192.0,10221.984375,W,-4.664760416666667,284.97229650285175,-895.33,1347.69,2243.02,-5.215,0.0,921.875,921.875,19.37499593973972,16.484150340754514,20.74330704893482,64.8753450530423,8.064067682133768,179.45751586378321,0.051041666666666666,23,0.15953424166666666,0.00849499053265691,-4.426587789330456e-06,34.976333333333336,0.019576062480034934,-2.5451395793022472e-05,68.989,2.259119813850813,6.579999999999998,0.004007258031482755
S079,10222.0,10251.984375,W,5.209848958333335,186.57905042034713,-1056.87,1108.46,2165.33,1.93,54.973948671601214,921.875,903.9957682291666,16.406680020819433,18.649973818681353,15.187619133906315,65.01851453828439,6.078827373342675,124.92397688194208,0.06875,27,0.16211699166666665,0.009059150907136045,-7.42163829797047e-08,34.870999999999995,0.03505709628591525,-6.0312516360815584e-05,76.14766666666668,2.482833976639508,8.049999999999997,0.004423160922081411
S079,10252.0,10281.984375,W,0.1869322916666672,150.48995332370336,-827.62,873.22,1700.8400000000001,5.445,50.62769373776961,859.375,861.0270182291666,8.00945723285483,15.926711490100173,7.364144258481241,64.39139826209943,3.54596552695652,103.17945531936094,0.057291666666666664,24,0.17636488333333336,0.00912512860748031,1.1718646842080848e-05,34.76266666666667,0.031615748537013176,-4.604167915627349e-05,80.88333333333334,0.6278340191129772,2.1099999999999994,-0.0008477085632889951
S079,10282.0,10311.984375,W,-0.16266666666666668,15.696586564087394,-51.14,24.01,75.15,3.1100000000000003,73.98677467107666,921.875,902.0100911458334,0.1942952676769732,1.0635840058500314,1.388737795600939,64.33765793067296,0.2019207659260669,66.3023378170031,0.03125,20,0.18382514166666664,0.0018125402445915166,1.318337814219239e-06,34.68299999999999,0.024650895859312898,-3.482639833615505e-05,76.25133333333335,2.169563294510878,7.030000000000001,-0.003877223273986351
S079,10312.0,10341.984375,W,0.011458333333333274,19.40444667032784,-42.54,26.37,68.91,5.445,23.457665422054536,968.75,958.5042317708334,0.05581428468591172,0.03225804701500421,0.0,64.25269958453872,0.05564260073051319,65.24568951279464,0.004166666666666667,4,0.18668537500000001,0.0016681502733192281,1.364388607961323e-06,34.657999999999994,0.007483314773547787,1.5277781922142764e-06,68.639,2.266310290611887,6.650000000000006,-0.004005105253121001
S079,10342.0,10371.984375,N1,-0.09180208333333335,20.75814141192548,-41.15,29.7,70.85,4.58,31.95648047237282,937.5,933.7972005208334,0.04559597630883185,0.06441510347391793,0.055891993438734626,64.2518400354375,0.045757264069667215,65.24568951279464,0.007291666666666667,7,0.18865975,0.001697395908688759,8.354546537149134e-07,34.666999999999994,0.012688577540450786,1.1458336441610898e-06,64.91033333333333,0.372634614006208,1.480000000000004,-0.0006598265678783006
S079,10372.0,10401.984375,W,0.1098177083333334,21.82787557703115,-47.94,32.02,79.96000000000001,5.045,77.62684629356733,921.875,899.7802734375,0.09636964965693297,0.13188915142607024,0.24767801889079027,64.26349513889019,0.10239238497678865,65.3834841531101,0.009375,5,0.19086892500000002,0.002062922187749291,3.6393434351517283e-07,34.67666666666666,0.012472191289247788,1.458333728931632e-06,63.745,0.44497003644440253,1.6000000000000014,0.0005412848690551395
S079,10402.0,10431.984375,W,-2.6708125000000007,205.47223546211342,-917.21,652.72,1569.93,1.4,10.4811137054626,1000.0,996.97265625,26.800303149683412,15.083495877059267,22.276086358189133,64.98759966346667,8.191040225819084,131.46862743635836,0.08645833333333333,38,0.1706550666666667,0.016036561394582764,1.7598532117657364e-05,34.711999999999996,0.028448784391136375,2.4583340001990922e-05,69.96133333333334,3.8714697754499157,12.530000000000001,0.006852987970103072
S079,10432.0,10461.984375,N1,2.5867552083333325,140.25868208436953,-816.44,1118.34,1934.78,-0.365,35.70528795037729,1000.0,971.4192708333334,2.4895057519292636,1.1422059059544485,2.8238411385985698,64.71447514933132,2.464167772949605,109.83624174196785,0.014583333333333334,9,0.1870375333333333,0.0017678675333733496,1.226725159159389e-06,34.64533333333334,0.05426683046658241,-9.375002543132037e-05,90.43933333333332,6.9801441882592155,19.700000000000003,0.012085419945046645
S079,10462.0,10491.984375,W,-0.49628645833333346,54.079128613303226,-426.58,131.05,557.63,7.795,43.014101697913816,921.875,903.6458333333334,0.0,0.05581428468591172,0.0,64.63752295163343,0.0012950140029997154,64.66065264130884,0.003125,3,0.19035665833333332,0.00173147475434398,1.4871959329416037e-06,34.486666666666665,0.031233884733659286,-5.000001356337057e-05,92.33099999999999,3.7304810681733804,12.050000000000011,-0.006582883730165941
S079,10492.0,10521.984375,N1,0.7693437499999998,57.5214907663736,-116.43,93.92,210.35000000000002,12.855,66.3917894762794,953.125,927.4576822916666,0.0,0.139283726964862,0.0,64.63790965490908,0.0032316884078067254,64.66065264130884,0.019791666666666666,17,0.19220313333333336,0.0015940323236650095,6.342857623388e-07,34.425333333333334,0.01521694961401905,-1.3263892486951284e-05,72.81733333333334,6.793921269945819,18.840000000000003,-0.011930072680683773
S079,10522.0,10551.984375,N1,-0.6011822916666667,60.495556500974544,-120.06,132.23,252.29,10.71,41.20398166926266,968.75,962.0768229166666,0.045595976308831845,0.2699987139887069,0.07880950133074056,64.6381423072995,0.047177621419591885,64.8074069840786,0.00625,6,0.19413490000000003,0.00162045943793728,1.1981079638964764e-06,34.42333333333333,0.01577621275493327,1.111111412519366e-05,64.80633333333334,0.3057393588590707,1.1199999999999903,-0.00054690987058102
S079,10552.0,10581.984375,N1,0.625770833333333,61.587316242956895,-246.69,148.35,395.03999999999996,13.805,62.17889101043644,937.5,908.4147135416666,0.0,0.24016912082368586,0.12401959270615269,64.64117021619589,0.019054678911838513,64.8074069840786,0.07604166666666666,67,0.19772078333333334,0.002009086592556155,2.2231039016666433e-06,34.44666666666667,0.02134374745810965,2.9652785821610684e-05,63.617,0.4220280401426753,1.240000000000002,0.00025614590281735586
S079,10582.0,10611.984375,N1,-0.6997968750000001,62.11536642284385,-127.7,96.05,223.75,11.905000000000001,37.51824959220656,921.875,928.9713541666666,0.07902948640996107,0.17399263633843817,0.4482556856552098,64.67442448065394,0.09165931224418464,65.49809157525127,0.25729166666666664,149,0.20053838333333335,0.0018417372423128668,2.0427002068956667e-06,34.47933333333334,0.016719914938646295,1.611111548153161e-05,64.19066666666667,0.211973792929431,0.7800000000000011,0.00021000005696616123
S079,10612.0,10641.984375,N1,0.43493229166666675,59.080307759823114,-126.15,86.54,212.69,13.594999999999999,52.221080460929144,906.25,896.77734375,0.0,0.0,0.4643497170476388,64.68363344942368,0.06816974350316819,64.78425734698207,0.3145833333333333,185,0.20289714166666667,0.0017667247064169025,1.8459620892909317e-06,34.51333333333333,0.02211083193570205,2.368056197931835e-05,64.87433333333333,0.2443178712706507,0.7199999999999989,-0.00023211811852162558
S079,10642.0,10671.984375,N2,0.1568437499999996,66.84795469428305,-178.74,153.02,331.76,14.015,29.055702207481698,937.5,955.76171875,0.0,0.0,0.49300664859163473,64.72308780439339,0.07237677885006737,64.78425734698207,0.0,0,0.20490350833333335,0.001711692130591997,1.398520127636757e-06,34.54666666666667,0.012736648783027734,1.4652781752598028e-05,65.02266666666667,0.34426669248644365,1.0400000000000063,-0.0005725001553006065
S079,10672.0,10701.984375,N2,-0.41287500000000005,65.07458817471975,-179.05,218.01,397.06,10.3,18.818537520937003,906.25,899.6175130208334,0.032258047015004204,0.0,0.4405535797121869,64.74453637808546,0.07366039257318978,64.78425734698207,0.0,0,0.2079024416666667,0.0016414654773292889,1.2976516106910778e-06,34.577333333333335,0.018961950204438114,2.7986118702833064e-05,64.55766666666666,0.1493247765405632,0.5,1.7013893504210722e-06
S079,10702.0,10731.984375,N2,0.5554322916666669,62.49391512646616,-299.67,179.72,479.39,14.71,36.035567008195564,921.875,914.5263671875,0.03225804701500421,0.08538490263051322,0.26899213898055335,64.77324151481916,0.0467296790592626,64.96922348312314,0.0010416666666666667,1,0.21003705833333333,0.0017646777481825254,1.45739904985868e-06,34.60800000000001,0.015790292376435994,1.4652781752598866e-05,65.1,0.5340848871356194,1.4899999999999949,0.0009403474773078019
S079,10732.0,10761.984375,N1,-0.006171875000000071,59.97945910790384,-130.4,103.6,234.0,11.895,83.78566328977173,968.75,962.2802734375,0.0,0.0,0.28558389261690204,64.77110589532549,0.041925686596969006,64.78425734698207,0.0,0,0.21109371666666663,0.001443110212835075,2.5630562508290706e-07,34.629333333333335,0.008137703743822538,-4.861112429764623e-07,65.13033333333333,0.37258988475564103,1.2999999999999972,-0.0006553126777649399
S079,10762.0,10791.984375,N2,-0.328625,62.49585772344069,-129.82,119.87,249.69,12.94,33.148026969821565,953.125,959.2366536458334,0.5051804115995481,0.18474539067321816,1.2195132047654187,64.73789442909273,0.5984562537402315,78.4729252672538,0.007291666666666667,3,0.21300406666666663,0.0017085666835749316,1.6694661646772417e-06,34.639333333333326,0.009977753031395193,3.3333342375574526e-06,63.08033333333333,0.6012236596216829,1.8499999999999943,-0.001044410005536569
S079,10792.0,10821.984375,N2,0.08480208333333339,64.0682756726694,-133.85,92.38,226.23,15.114999999999998,29.535899214009042,953.125,949.6419270833334,0.0,0.1015291077584267,0.0,64.50573294455249,0.0007870237016135986,64.50581369148055,0.0,0,0.2161203666666667,0.0014684996591381547,1.0147962822255435e-07,34.649999999999984,0.00894427190999738,1.8750005086260668e-06,62.50833333333333,0.09077750577954637,0.3200000000000003,-5.760418229280024e-05
S079,10822.0,10851.984375,N2,-0.4605989583333334,61.623546369819806,-122.72,101.31,224.03,11.75,37.93343030205407,859.375,873.33984375,0.0,0.07880950133074056,0.0,64.50576524332371,0.0006109080127762013,64.50581369148055,0.0,0,0.2174010666666667,0.0014686486403796071,7.534949960652613e-07,34.65899999999999,0.011357816691600853,3.819445480535814e-07,64.23666666666666,0.9034059011442317,2.9199999999999946,0.0016052087687740792
S079,10852.0,10881.984375,N2,0.3864010416666667,64.23794910992709,-129.68,95.39,225.07,14.17,37.20382360658434,953.125,944.2545572916666,0.05589199343873463,0.1015291077584267,0.07216126567549165,64.50693587838617,0.056037919656205165,65.49809157525127,0.005208333333333333,4,0.21894869166666667,0.0015177231730228518,1.1913156443456063e-06,34.655666666666654,0.0066749947981664635,-3.819445480531373e-07,66.054,0.18309560344257333,0.6800000000000068,0.00023590284177051665
S079,10882.0,10911.984375,N1,0.3252552083333338,60.09067175542475,-226.89,143.55,370.44,4.41,55.72049498308293,859.375,902.6123046875,0.296373846007407,0.566688686765788,1.4141026889623525,64.74950887130124,0.27774555252106786,65.76473218982953,0.017708333333333333,13,0.22026149166666667,0.0014551595101330186,7.606822810010551e-07,34.65299999999999,0.010049875621119527,2.048611666831913e-06,66.71766666666666,0.7165411517995484,1.7999999999999972,0.001181076709276454
S079,10912.0,10941.984375,N2,0.016802083333333478,57.87420298301448,-121.17,85.58,206.75,12.715,102.04178327836995,968.75,941.9189453125,0.12401959270615269,0.07216126567549165,0.5077513317860974,64.86321410190172,0.15784392350863827,65.12296062065974,0.0010416666666666667,1,0.22114734166666666,0.0014595285340126914,7.66933801794111e-08,34.63633333333333,0.013287420951995263,-6.909724096603889e-06,67.10266666666666,0.3088573924789375,0.9200000000000017,0.00028923618957145023
S079,10942.0,10971.984375,N2,-0.25524479166666675,56.762303637281235,-119.01,81.41,200.42000000000002,12.510000000000002,62.698290771645965,921.875,943.4000651041666,0.08507936450096985,0.07880950133074056,0.4742684425044066,64.88377251613572,0.11735590177781684,64.96922348312314,0.0,0,0.2215635416666667,0.0014869882026870853,3.442828624899268e-07,34.62666666666667,0.01043498389499959,1.0416669492366296e-06,65.763,1.2304312252214666,3.1999999999999957,-0.0021371880797493694
S079,10972.0,11001.984375,N2,0.03740624999999997,56.594561873815465,-126.22,102.78,229.0,12.379999999999999,84.56526132582974,937.5,914.013671875,0.09636964965693294,0.11580316603568698,0.5063389410897495,64.87814760515325,0.1287956674157609,64.96922348312314,0.0,0,0.22353789999999998,0.0016311590786922076,4.074701626166896e-07,34.638,0.011075498483889163,1.4444448362749627e-05,63.536000000000016,0.4636421033512808,1.5499999999999972,-0.00026916673968281797
S079,11002.0,11031.984375,N2,-0.28336979166666704,58.87231129077082,-130.35,103.53,233.88,11.434999999999999,124.06669496436515,1015.625,1002.7180989583334,0.08507936450096985,0.15612494995995993,0.463212664142748,64.89090623093657,0.11400377681643956,64.94613152451807,0.0,0,0.22473317499999995,0.0015573979456265066,1.0154401626085524e-06,34.643666666666654,0.010796089827132283,-4.548612345000274e-06,64.40433333333333,0.2658531340588066,0.8100000000000023,-0.00012913197947373435
S079,11032.0,11061.984375,N2,0.5469270833333335,61.628130153219665,-151.68,100.49,252.17000000000002,14.615,84.74617738395558,1000.0,978.8492838541666,0.07198059875565237,0.0,0.4336124401627436,64.90036047627521,0.09938166932872818,64.94613152451807,0.0,0,0.22623803333333334,0.0016013168639869085,9.408079809049395e-07,34.638999999999996,0.01164760347310237,9.618058164619317e-06,63.616,0.4524201587020635,1.8900000000000077,-0.00034625009392634884
S079,11062.0,11091.984375,N2,-0.75203125,60.20781136975935,-127.53,87.97,215.5,12.895,52.10753832085087,953.125,959.3098958333334,0.11557806855349137,0.1356408400888169,0.4579911127685776,64.88663602064871,0.14247546168808722,65.12296062065974,0.0010416666666666667,1,0.22732663333333333,0.0016318903452404137,5.100496175264792e-07,34.642666666666656,0.013646326326970899,1.1875003221298671e-05,61.369,0.3731340241789802,1.279999999999994,-0.0004957987456051283
S079,11092.0,11121.984375,N2,-0.18451041666666632,51.73953624153849,-123.83,97.08,220.91,10.684999999999999,135.84621258195696,859.375,881.1279296875,0.11987768650679834,0.20219874281810513,0.41878497988227803,64.8965671010589,0.13752029337078778,64.94613152451807,0.0,0,0.22895963333333338,0.0017001729565612523,6.30873435024261e-07,34.649666666666654,0.008749603165602717,-1.6319448871375023e-06,62.27866666666667,0.5373374689667146,2.029999999999994,0.00014833337357133508
S079,11122.0,11151.984375,N1,0.09894270833333346,54.420103920380846,-176.38,110.56,286.94,3.415,150.23712118663724,859.375,898.095703125,0.5130205689508625,1.0677078252031311,1.1464846633659491,64.81092615540591,0.447326366897339,67.49814812274482,0.025,16,0.2302617416666667,0.0017068549122866996,1.528498895534644e-06,34.638999999999996,0.013747727084866282,-1.3020836865459464e-05,63.644999999999996,0.27572631357924476,0.9300000000000068,-0.0002461459001046829
S079,11152.0,11181.984375,N1,0.5077916666666668,48.50636062907039,-107.97,80.35,188.32,11.485,128.38749242294853,1000.0,981.15234375,0.24206145913796356,0.3,0.12801909579781015,64.87491181022752,0.24149040395694596,64.94613152451807,0.0,0,0.23210801666666667,0.0016571267452196398,9.92430824769649e-07,34.62266666666667,0.013148721948877926,-1.4236114972905615e-05,64.09666666666666,0.5074664739884035,1.7800000000000082,-0.0007824307678034871
S079,11182.0,11211.984375,N2,-0.5556770833333334,55.304808066484824,-125.24,78.45,203.69,12.774999999999999,131.00914199248228,1000.0,1019.0185546875,0.17950549357115012,0.1356408400888169,0.21182234678433298,64.89847906998463,0.18517397973361735,65.11528238439882,0.0010416666666666667,1,0.23364484166666666,0.0014266365164016205,6.744786985890559e-07,34.61266666666667,0.008537498983244504,-1.3888892656498505e-06,62.12166666666667,0.3789906184708125,1.2700000000000031,-0.0004578820686529049
S079,11212.0,11241.984375,N1,0.5046718750000004,55.615364517488935,-136.09,90.66,226.75,10.67,152.14989655621721,1000.0,958.1705729166666,0.29553792469081785,0.43827312641015687,0.60803270968071,64.75705480512715,0.3110781773539715,66.75327707311455,0.025,11,0.23431717500000002,0.0016471278520629941,7.232287118133416e-07,34.612,0.01077032961426924,2.708334068015825e-06,59.769666666666666,0.5818675870753485,2.3999999999999986,-0.00032531258824668673
S079,11242.0,11271.984375,N2,-0.22203645833333335,55.52044926354392,-132.51,102.98,235.49,10.17,181.64154362417753,984.375,980.8024088541666,0.1462753717308556,0.22428271082497642,0.34153961052205284,64.89638332893593,0.16154717724352918,64.94613152451807,0.0,0,0.23590742500000003,0.0015378308948130967,1.0414787981442015e-06,34.614000000000004,0.012000000000000455,-6.388890621987411e-06,60.09166666666667,0.8983803327222952,2.549999999999997,8.531252314250349e-05
S079,11272.0,11301.984375,N2,0.25653645833333366,57.21578723290419,-127.48,92.26,219.74,10.5,129.05154661261528,984.375,979.6142578125,0.13238185901860652,0.1064285672672312,0.4708102870465862,64.87701942062219,0.1563151609658307,66.09841147864296,0.0010416666666666667,1,0.2358540333333333,0.0014589658034222523,-3.780165955991634e-08,34.60533333333334,0.0123107902084119,-8.958335763436566e-06,61.085666666666675,0.6597660359720116,2.6299999999999955,0.0002600347927611736
S079,11302.0,11331.984375,N2,-0.27910416666666676,57.61252344352585,-125.75,110.41,236.16,11.28,149.72483155936112,1000.0,994.6940104166666,0.3649685464948392,0.26496036129118555,0.31498835681744736,64.79406424562355,0.36524676682562185,65.12296062065974,0.0,0,0.2369961333333333,0.0017420473823126104,8.558800064778662e-07,34.607333333333344,0.009977753031396268,1.666667118778578e-06,61.04,0.40542159126848054,1.1200000000000045,0.0005793057127022879
S079,11332.0,11361.984375,N2,-0.06581770833333316,50.109643879676696,-127.35,98.29,225.64,4.345000000000001,130.89421784228085,859.375,957.6253255208334,0.21947053949980008,0.376315689632905,0.5471517157059821,64.7483780717639,0.2227563899391391,67.90434448545984,0.019791666666666666,11,0.238394275,0.0017863935221674085,1.8810545467270399e-06,34.612,0.013012814197295457,-6.25000169542121e-07,61.869666666666674,1.1183484350694202,2.8599999999999994,0.0017798268716978259
S079,11362.0,11391.984375,N1,0.13185416666666658,64.83908740585856,-336.4,370.58,706.98,4.1,67.86498068914949,828.125,832.1695963541666,0.7230547418572277,2.1457281527620307,1.8863404159723016,64.76828459413517,0.7496793090693027,75.26619427073486,0.034375,18,0.23920539999999998,0.0012989279836336865,3.739957611750662e-07,34.60933333333334,0.00963788819653358,-9.027780226725255e-07,64.12533333333333,1.7643369544644492,5.449999999999996,0.0027872924227681267
S079,11392.0,11421.984375,W,-0.4205052083333335,59.44219671773732,-122.7,112.89,235.59,10.684999999999999,116.9185051890164,968.75,948.3642578125,0.3655626727502868,0.4783223993378664,0.3322639094989938,64.8924524629852,0.37476215462235307,66.55824516917495,0.00625,4,0.24153190000000002,0.0019009049748299734,1.4246605427139072e-06,34.61466666666667,0.009910712498213297,-1.5972226554964272e-06,67.464,0.9590780294984707,2.660000000000011,-0.0010602086209333273
S079,11422.0,11451.984375,N1,0.8498437499999998,61.05665366311919,-128.82,105.17,233.99,14.995,129.3976264759351,1046.875,1019.7347005208334,0.42090423288901346,0.35410385472422573,0.21157632176251565,64.8499409388614,0.4192674876349383,66.55824516917495,0.003125,2,0.2429300083333334,0.001594072747690815,-2.0648291191485252e-07,34.603333333333346,0.011925695879997698,-5.000001356336721e-06,65.36066666666666,2.390250939871283,6.789999999999999,-0.004262640045204004
S079,11452.0,11481.984375,N1,0.20324479166666679,64.49888728483418,-162.76,115.53,278.28999999999996,14.385,117.28077433066963,1000.0,992.2200520833334,0.4978425677081282,0.37873000268074297,0.6767074277029426,64.71476612625672,0.4343138925107116,66.55824516917495,0.014583333333333334,7,0.24432810833333335,0.002056757524178256,1.9294703584717704e-06,34.600000000000016,0.011254628677421148,-7.708335424352027e-06,61.09833333333334,0.598454026824302,1.8200000000000003,-0.0008880905186877495
S079,11482.0,11511.984375,N2,-0.37629687500000003,61.15661031221903,-135.65,93.3,228.95,13.815000000000001,151.91558836252412,1046.875,1017.0735677083334,0.11987768650679835,0.11557806855349138,0.4267071513995935,64.31659674901108,0.14203623397675444,65.42935121182236,0.014583333333333334,13,0.24740196666666664,0.001576590307876114,6.481707487442359e-07,34.58400000000001,0.01171893055416541,1.3194448023678974e-06,60.67633333333333,0.4976778297475408,1.75,0.0008014932729745207
S079,11512.0,11541.984375,N2,0.14973437500000006,65.91788845856406,-146.58,110.1,256.68,13.785,67.06915741166941,968.75,960.7991536458334,0.3861985312705831,0.26252480041575754,0.5050515220554785,64.37362373003297,0.347768405886569,66.2872536767062,0.15625,41,0.24964314999999998,0.0015438305479661036,1.2726392341143752e-07,34.59600000000002,0.010519822558704825,3.263889774275474e-06,60.891,0.5737208961391126,1.6000000000000014,0.0005130904169624609
S079,11542.0,11571.984375,N2,0.21914062499999976,64.81974158147005,-280.81,150.46,431.27,13.620000000000001,158.4867468262623,1000.0,998.3805338541666,0.910728874766433,0.5814618416232392,2.578994171668482,64.67355294526253,0.5470445773937413,67.62396025078685,0.020833333333333332,11,0.2514574333333333,0.002624396361493863,3.285800370497065e-06,34.60200000000001,0.015143755588800031,-3.7500010172531945e-06,61.715333333333334,0.6200415756669514,1.980000000000004,-0.0005165279178949436
S079,11572.0,11601.984375,N2,-0.4716979166666668,47.28015544924296,-106.94,90.7,197.64,7.375,129.75278281100503,1000.0,1010.4329427083334,0.032258047015004204,0.4622359888357894,0.49344553728237217,64.3580493646403,0.1323769057984311,65.19202405202648,0.11145833333333334,84,0.25615350000000003,0.001754470394924534,2.015032664668143e-06,34.61133333333334,0.012578641509408763,8.055557740764509e-06,61.248666666666665,0.7427145406472722,2.1000000000000014,-0.0005206945856918893
S079,11602.0,11631.984375,N2,-0.5458645833333333,57.5777274790203,-195.5,174.04,369.53999999999996,9.684999999999999,125.35979201159128,1078.125,1073.9420572916667,0.660883116031538,0.8977958155331807,1.8847662321890213,64.47767540588782,0.4723602999480222,68.27151675479314,0.03125,19,0.25537434166666667,0.0025308109783750924,-3.1286746768323185e-06,34.618,0.012220201853216397,-1.8055560453433738e-06,60.81766666666667,0.519997970081508,1.5200000000000031,0.0008989238549598138
S079,11632.0,11661.984375,W,0.28188020833333266,111.52984453983338,-985.65,516.67,1502.32,9.265,122.36293052872722,796.875,875.0,25.57617163602785,19.737745736806758,18.345714303071727,64.78476658811606,5.722366333664317,119.08400396358866,0.04791666666666667,19,0.2568151083333333,0.010422925300186308,-2.490480276280487e-07,34.59733333333335,0.013148721948876304,2.847222994581089e-06,60.43166666666666,1.646444823112987,5.349999999999994,0.002046076943922782
S079,11662.0,11691.984375,N1,0.1352760416666669,117.56170836490001,-608.81,773.3,1382.11,1.6600000000000001,77.27123375997414,796.875,830.8024088541666,17.020031058968836,4.860354492208419,7.476029329793359,63.10311700645937,2.9061284215310392,93.72833082905083,0.07083333333333333,29,0.26151105,0.005530806588027344,7.725459560942808e-06,34.62066666666667,0.012364824660661721,-8.055557740765719e-06,69.464,3.3964919156879105,9.969999999999999,0.0060493071965351565
S079,11692.0,11721.984375,N1,-0.12843229166666667,32.010350209128305,-71.32,52.25,123.57,5.525,82.53927161503223,953.125,939.8518880208334,0.49031859682138196,0.46351240544347894,0.3722060268035552,62.87473653454948,0.38024866117030026,64.45153217728807,0.19479166666666667,126,0.2675838083333334,0.0014505150194317929,2.1370339998464108e-07,34.58933333333334,0.013148721948877168,-1.7708338137027297e-05,74.829,0.5656167725000137,2.0999999999999943,-0.0005948959947092007
S079,11722.0,11751.984375,N1,-0.07164062499999986,35.86290063628336,-101.2,63.25,164.45,8.005,112.97197325888814,1000.0,978.8818359375,0.5544084294067165,0.40485202843823764,0.432760789630561,63.038174242607994,0.3195775731503742,64.10148204214939,0.175,112,0.26798933333333336,0.0016063587308637539,-2.8148662149701986e-07,34.56066666666667,0.018427033281448308,-1.972222757222065e-05,67.56066666666666,2.856966845372126,9.149999999999999,-0.005038195811142528
S079,11752.0,11781.984375,N1,0.5498333333333334,37.235273942824996,-80.0,69.35,149.35,5.615,63.388547733806774,968.75,964.3636067708334,0.5304681747051372,0.21578094200034337,0.4509057243174256,63.08134470560494,0.2665210422861845,64.10148204214939,0.16875,103,0.268907175,0.0016366759486965243,5.883836231509371e-07,34.54866666666667,0.011469767022722982,-8.055557740764436e-06,62.72933333333334,0.6039753490186686,2.240000000000002,-0.0010080558290082003
S079,11782.0,11811.984375,N2,-0.19470833333333323,40.57608303799909,-144.08,84.72,228.8,5.17,102.29449457945762,968.75,945.068359375,0.487418752132656,0.2571123700511769,0.37610369986953796,63.07368512273182,0.24331743014729892,63.835726674018524,0.084375,60,0.27081751666666665,0.0016962675741331527,1.0895285073590753e-06,34.53399999999999,0.01280624847486441,-1.0000002712673098e-05,62.13166666666667,0.6423658528353525,2.0,-0.0005271181985455186
S079,11812.0,11841.984375,N2,0.28927604166666654,45.863902488854286,-104.88,242.39,347.27,3.395,108.32237775132795,968.75,951.6927083333334,0.5315715938375564,0.2582808246366733,0.4095207543750242,63.06131998059729,0.26639063682804776,64.10148204214939,0.10104166666666667,69,0.2728240833333333,0.0016698756869067213,8.539511865101869e-07,34.53366666666666,0.0104827901290096,1.5625004238550813e-06,64.06466666666667,0.7096183637859308,2.789999999999999,0.0006258335031015336
S079,11842.0,11871.984375,N2,-0.3478802083333334,39.913197936483364,-87.26,83.5,170.76,5.055,48.185877641699996,968.75,960.9212239583334,0.34302954804700614,0.19249988726547926,0.22817969283488446,63.10697039963876,0.20634593716852973,64.10148204214939,0.06041666666666667,46,0.27380607500000004,0.0014934318149957984,8.199301269341658e-07,34.54666666666667,0.012736648783027736,3.4722231641208655e-07,63.836333333333336,0.15439091798274768,0.5999999999999943,-6.392362845150349e-05
S079,11872.0,11901.984375,N2,0.09604687500000016,56.81270411265031,-517.64,209.88,727.52,5.825,70.65817737270449,921.875,966.259765625,0.5018185245656264,0.3100669170607461,0.40549609533672865,63.07566077974163,0.2915056299594631,64.10148204214939,0.103125,75,0.27458509999999997,0.0014998173244320976,-6.65062680409797e-07,34.535,0.015864005379053324,2.604167373092007e-06,62.532333333333334,0.4804836683546657,1.730000000000004,6.315973935539696e-05
S079,11902.0,11931.984375,N2,0.022437499999999843,42.564501975632155,-92.5,115.0,207.5,3.48,70.29251191287347,984.375,972.2819010416666,0.4413471721772882,0.1899835519196333,0.3254787472793816,63.094989525127566,0.22914003878900288,63.76519426771944,0.08958333333333333,62,0.2756950083333333,0.0019231437001943515,2.2225672261738353e-06,34.54933333333334,0.013148721948876965,-3.263889774275153e-06,62.153000000000006,0.3585633370363827,1.259999999999998,0.00010454863947174555
S079,11932.0,11961.984375,N2,0.12540104166666724,67.60098072240396,-325.65,379.99,705.64,-0.13,106.67215765290464,921.875,985.2701822916666,0.6645670060690311,0.39435579500693985,0.5037188093459374,63.07501926837042,0.3133596890176799,64.10148204214939,0.18645833333333334,107,0.2787579500000001,0.0019056673496442187,8.600345214937442e-07,34.54899999999999,0.015132745950421285,-1.0243058334162672e-05,61.1,0.7136105380387816,2.1499999999999986,-0.0012768753463746048
S079,11962.0,11991.984375,N2,-0.3148593750000004,52.876085182727536,-113.27,419.69,532.96,2.79,84.44797044915987,906.25,956.689453125,0.5487319662944135,0.3388075878684275,0.4090767042988393,63.10029703301991,0.3344986467233806,63.835726674018524,0.2875,159,0.28110598333333336,0.0014338308476672579,3.112197024793199e-08,34.554,0.012000000000000927,7.638890961071087e-06,60.29466666666667,0.3779570816317054,1.1199999999999974,-0.00045125012240942975
S079,11992.0,12021.984375,N2,-0.05571354166666656,51.828215930844,-113.86,140.03,253.89,4.665,82.78116397061967,1015.625,1010.7096354166666,0.5315470982973506,0.3054766312211496,0.41053297844252273,63.0985157286164,0.3279042221182495,63.48228099241551,0.25729166666666664,129,0.2836355083333333,0.0018448031602126395,1.6628548347587931e-06,34.550666666666665,0.018785337071474065,1.3888892656492715e-05,60.407333333333334,0.09412521211426597,0.29999999999999716,-0.00010583336204246978
S079,12022.0,12051.984375,N2,0.3542135416666666,48.873241948413344,-118.43,154.15,272.58000000000004,6.595000000000001,66.2682069595593,1015.625,1015.5598958333334,0.5092791320827901,0.2530285309999645,0.4007791348493027,63.10838606275149,0.2928740708583049,63.48228099241551,0.21979166666666666,137,0.28547115,0.0016350358846724674,9.263175255852645e-07,34.55466666666667,0.009910712498213297,8.402780057178645e-06,59.848000000000006,0.3078571097116326,1.1300000000000026,-0.0005208334746184566
S079,12052.0,12081.984375,N2,-0.09237500000000025,51.978254632796926,-114.79,143.64,258.43,3.4749999999999996,49.04573835908662,1000.0,996.1018880208334,0.5128714355225878,0.26999871398870695,0.39999999999999997,63.09745653325458,0.29499271298866275,63.48228099241551,0.21354166666666666,142,0.287861725,0.0015840592158675784,1.5604806750435828e-06,34.562000000000005,0.011075498483892499,1.2500003390844887e-06,59.52633333333334,0.17524237184222477,0.5499999999999972,0.00029829869202980825
S079,12082.0,12111.984375,N2,0.04617708333333302,50.216183372182336,-116.75,115.22,231.97,5.675000000000001,64.8815182919068,1000.0,1001.025390625,0.513691661664747,0.254795584597841,0.4083426338226542,63.11050793909238,0.29621951841770944,63.48228099241551,0.23854166666666668,141,0.28960135,0.0014935157830323275,5.325209777888954e-07,34.57533333333333,0.011469767022725296,5.277779209467841e-06,59.92566666666667,0.1319263262414119,0.36999999999999744,0.0001903125516255822
S079,12112.0,12141.984375,N2,-0.7851145833333335,50.109802254309855,-118.94,133.07,252.01,4.205,56.13010426802172,1007.8125,1021.5250651041666,0.5051771897617265,0.2343726851737539,0.3853307899822351,63.11245943216968,0.28093194206374567,64.10148204214939,0.21041666666666667,127,0.2911810333333333,0.0017314068505761993,8.716182919971451e-07,34.576666666666675,0.012995725793080042,5.972223842292286e-06,59.989000000000004,0.18983062626106154,0.75,-0.0001323264247847276
S079,12142.0,12171.984375,N2,0.7952708333333336,52.697798129894856,-126.21,116.34,242.55,7.32,23.081033970859146,1015.625,1009.3424479166666,0.5022853587326852,0.25124473114984036,0.3952352938440594,63.11211812662338,0.2888983174147707,63.48228099241551,0.22916666666666666,138,0.292504475,0.0015330869347088536,3.2287118133439884e-08,34.59466666666669,0.009910712498210955,5.902779379008704e-06,59.314,0.06911825615084201,0.28999999999999915,-7.708335424352701e-06
S079,12172.0,12201.984375,N2,0.04800520833333331,53.44410105554578,-123.57,128.06,251.63,5.984999999999999,48.30406637469555,1015.625,1009.4970703125,0.49734974699232865,0.24206145913796356,0.40686251900980014,63.09601400078612,0.28191407544984,63.48228099241551,0.19375,127,0.2945855333333333,0.001579749420706412,1.0480640863889153e-06,34.59933333333335,0.013399834161493459,-5.138890282901935e-06,59.230333333333334,0.11446930690024433,0.38000000000000256,0.00020121533236093075
S079,12202.0,12231.984375,N2,-0.15652083333333344,54.43722004309551,-124.84,136.76,261.6,5.155,49.769217965125605,984.375,992.3746744791666,0.5146033649947199,0.2617030727062426,0.41053297844252273,63.08880755944288,0.2743672616253481,63.48228099241551,0.18333333333333332,123,0.29587690833333335,0.0015331108352835768,7.831206551434096e-07,34.606666666666676,0.010434983894998001,-4.861112429769804e-07,59.60299999999999,0.09125605002774692,0.3200000000000003,0.00015156254111397028
S079,12232.0,12261.984375,N2,-0.05667708333333354,53.87957794548158,-125.79,122.98,248.77,5.61,39.42942563233626,1015.625,1014.9576822916666,0.507238190199853,0.24016912082368586,0.39197129111142254,63.0965762664775,0.2798454012324876,63.835726674018524,0.18333333333333332,115,0.2981928166666667,0.0018267628699575537,3.405421930724247e-07,34.62466666666668,0.010241527663825826,6.944446328247407e-07,59.64199999999999,0.09967948635501651,0.27999999999999403,-0.000128888923852246
S079,12262.0,12291.984375,N2,-0.5963541666666667,54.070721170091055,-121.51,130.28,251.79000000000002,5.6899999999999995,44.20711644373737,1015.625,1011.2141927083334,0.4978425677081282,0.21794494717703367,0.3970581379729618,63.1059088404365,0.2690621164723259,63.76519426771944,0.1875,118,0.299612325,0.0018833490788242929,1.9273622849832527e-06,34.62200000000001,0.0110754984838919,2.083333898474222e-06,59.31433333333334,0.2084815472783039,0.6000000000000014,-0.00030440980479866733
S079,12292.0,12321.984375,N2,0.63334375,52.80987731719167,-117.64,101.14,218.78,7.71,46.18899747066803,984.375,995.99609375,0.4954644548720591,0.24578919095210205,0.39361218928731817,63.09369508494806,0.283605702109333,63.48228099241551,0.1875,126,0.3022805666666667,0.0017100477173329334,1.052158271527312e-06,34.63333333333333,0.011642832797714428,4.861112429771533e-07,59.15366666666667,0.15319885407172248,0.5,0.00013406253636679034
S079,12322.0,12351.984375,N2,0.1530677083333334,50.834450480370585,-114.5,107.39,221.89,6.46,33.677010278595986,968.75,958.0240885416666,0.512219393031172,0.24944382578492943,0.40686251900980014,63.08858634650908,0.2869775817077601,63.48228099241551,0.1875,120,0.30422286666666665,0.00154512362468366,5.686863521827144e-07,34.64466666666666,0.009910712498210367,6.944446328244731e-08,60.264,0.43611619246862793,1.4500000000000028,0.0007795141003456218
S079,12352.0,12381.984375,N2,0.2184739583333333,77.35500336189712,-253.47,526.51,779.98,0.8500000000000001,56.23774866035633,968.75,973.6735026041666,0.5197394763377984,0.2617030727062426,0.4563391750752211,63.059246710269214,0.3114953184281772,64.10148204214939,0.190625,130,0.3060799083333334,0.0018936976395218348,1.8076647698743416e-06,34.65599999999999,0.00799999999999983,2.2916672883207976e-06,61.544333333333334,0.2818709318504167,0.9299999999999997,0.0004967015236278004
S079,12382.0,12411.984375,N2,-0.570989583333333,52.05664858233664,-114.01,105.6,219.61,5.1850000000000005,26.141978026475325,984.375,987.3046875,0.5053704636754661,0.20684625513624577,0.48274816408822885,63.06507659962732,0.31002174623830153,63.48228099241551,0.225,158,0.30852393333333333,0.0014770847794068989,7.191165145172812e-07,34.66599999999999,0.013564659966251575,1.0694447345500008e-05,61.607,0.21483559605738844,0.6499999999999986,-0.00038413204864693205
S079,12412.0,12441.984375,N2,0.4765572916666665,51.93985911681743,-119.05,114.52,233.57,7.975,49.491585628573574,1000.0,1005.2164713541666,0.5082127162227993,0.18998355191963326,0.4699106002445808,63.08265571077535,0.30001134831271203,63.48228099241551,0.22708333333333333,145,0.310370425,0.0017955297577711307,1.625890415009332e-06,34.67366666666666,0.012512216252750138,-1.562500423855327e-06,60.865,0.27159712811441855,0.8500000000000014,-0.00047538207340008483
S079,12442.0,12471.984375,N2,-0.8264895833333334,52.336880310099126,-122.39,116.83,239.22,5.25,29.146746235989283,1000.0,993.4733072916666,0.502061721526569,0.1899835519196333,0.47495887979908324,63.074773542773485,0.2993479488988885,63.48228099241551,0.215625,141,0.31262221666666673,0.0015667218280182693,-5.6058174928976e-07,34.690999999999995,0.019382122346809763,1.5625004238555228e-06,60.08133333333333,0.10666874997965524,0.3999999999999986,-0.00018138893809378735
S079,12472.0,12501.984375,N2,-0.0073593749999994055,54.370887562455536,-125.25,146.32,271.57,6.859999999999999,40.48021305555675,1000.0,994.9300130208334,0.5092876544061868,0.17677362623014653,0.47495887979908324,63.06896740419558,0.2907184809809739,63.48228099241551,0.19895833333333332,132,0.3144685416666667,0.001562641859671381,1.3517957226008378e-06,34.695,0.017078251276599815,4.756945734848798e-06,59.968666666666664,0.055721529850578363,0.20000000000000284,2.861111887237405e-05
S079,12502.0,12531.984375,N2,0.6880989583333331,52.28230103925187,-113.6,117.76,231.36,8.415,42.659250603335344,1000.0,982.763671875,0.5088528339286539,0.194978186101819,0.4675911601554883,63.07441466670727,0.2895504312970921,63.48228099241551,0.19791666666666666,132,0.31677386666666674,0.001514872139452331,6.270492152368721e-07,34.717,0.0163605215890762,1.1909725452941326e-05,60.651,0.2532238798639127,0.75,0.00037697926892883775
S079,12532.0,12561.984375,N2,0.10747395833333347,55.50985905697621,-130.96,120.22,251.18,8.125,37.06479970291963,1000.0,1000.5045572916666,0.5068283733178323,0.20453835214941965,0.4591611841777956,63.071794037728445,0.2865836626491,63.48228099241551,0.18020833333333333,135,0.316998,0.0017483090020550278,7.245770194707581e-07,34.72866666666667,0.012578641509408312,4.722223503207353e-06,60.56666666666667,0.06106462878695774,0.240000000000002,-3.055556384427666e-06
S079,12562.0,12591.984375,N2,-0.5142708333333333,52.77636678999085,-115.84,101.41,217.25,7.59,38.86350596173551,1000.0,990.7633463541666,0.5145021444048822,0.1821904480893551,0.4695306000411475,63.06644158003432,0.2922409373304042,63.48228099241551,0.18229166666666666,133,0.31816142500000005,0.0015260953479522932,1.2121335753400656e-07,34.746,0.012000000000001164,7.777779887636103e-06,59.95466666666666,0.3004189667040943,0.9299999999999997,-0.00030076397047633716
S079,12592.0,12621.984375,N2,0.25961979166666654,53.555716411268286,-119.99,131.93,251.92000000000002,7.665,39.611990075497246,1015.625,1007.763671875,0.4962872134801469,0.16827350421923892,0.48131312717283004,63.043458158707544,0.2931297630037392,63.48228099241551,0.16145833333333334,113,0.3193354166666666,0.0016610724827819951,5.936841888249178e-07,34.757333333333335,0.013148721948878813,1.5972226554971673e-06,60.02799999999999,0.1303175608529665,0.3299999999999983,-0.00022208339357730913
S079,12622.0,12651.984375,N2,-0.22820833333333343,53.43589819741903,-120.18,122.52,242.7,7.205,60.680503912520756,1000.0,989.8600260416666,0.5075717912412873,0.19249988726547926,0.478576402744524,63.04480254763371,0.28823612406010857,63.48228099241551,0.153125,111,0.31968759999999996,0.00151972603013394,1.7703173205070646e-07,34.76333333333333,0.0139841179756024,1.8055560453437667e-06,60.04766666666668,0.1948962687060875,0.6199999999999974,-0.00011072919670388383
S079,12652.0,12681.984375,N2,-0.13013541666666698,51.520038847989326,-116.98,100.67,217.65,5.38,53.041229397074346,1015.625,1016.4794921875,0.5120922751456899,0.16827350421923892,0.47794114111990815,63.04495634190948,0.2853007420164711,63.48228099241551,0.15104166666666666,110,0.32075480833333336,0.0016533178374399874,5.65097592528645e-07,34.764,0.010519822558707393,-3.4027787008413795e-06,60.21966666666667,0.22342013238639774,0.8299999999999983,0.00035024315056509053
S079,12682.0,12711.984375,N2,-0.11152083333333339,50.7742837055538,-109.96,116.94,226.89999999999998,6.89,46.037593764972264,984.375,1000.9358723958334,0.49355217555999076,0.1821904480893551,0.4721359194012767,63.03676882392478,0.2816343475738451,63.48228099241551,0.13125,99,0.32288932499999995,0.0017021771067395864,1.4409810766550297e-06,34.78600000000001,0.014047538337136213,1.180555875801758e-05,60.91966666666666,0.08848665938371116,0.4199999999999946,2.7187507375084572e-05
S079,12712.0,12741.984375,N2,0.6788020833333331,55.398684798640865,-116.48,131.01,247.49,5.68,23.117107843151008,953.125,952.7180989583334,0.514714052222742,0.17399263633843817,0.48812282152024905,63.037259925535196,0.29879382052153086,63.48228099241551,0.16979166666666667,129,0.32522655,0.0016346252264153197,2.4739807058324004e-07,34.79333333333334,0.013743685418726134,6.250001695423187e-07,61.111666666666665,0.39438630244413314,1.0700000000000003,0.0006355210057294386
S079,12742.0,12771.984375,N2,-0.8153645833333333,53.54294983130751,-120.71,117.67,238.38,5.175,55.420528936959066,968.75,980.2897135416666,0.5137423542956355,0.1592592172022985,0.47920176501889283,63.04039045086712,0.28468720066583175,63.48228099241551,0.14583333333333334,111,0.3277561166666666,0.0017761709901889687,1.508367162642993e-06,34.79933333333334,0.011234866364236283,6.944446328246642e-06,61.76166666666668,0.21910550477389165,0.6199999999999974,0.0003597570420347868
S079,12772.0,12801.984375,N2,0.7637083333333334,55.51959365937787,-121.29,106.37,227.66000000000003,9.315,25.998453526273163,1000.0,1004.9967447916666,0.4942332375058921,0.17677362623014656,0.4655853823563288,63.052584700446964,0.28265867454399024,63.48228099241551,0.146875,108,0.32912220833333333,0.0015637947643250894,1.2904280844260254e-06,34.806666666666665,0.01043498389499959,3.958334407100387e-06,61.369,0.5197521845392599,1.5999999999999943,-0.0009128821920795868
S079,12802.0,12831.984375,N2,-0.2582552083333332,80.60519987767715,-357.1,483.07,840.1700000000001,3.99,55.66884457159602,1031.25,1032.0719401041667,0.5190375290836128,0.17116012950028858,0.44910090543650527,63.057199388890794,0.24795207132162367,63.835726674018524,0.09895833333333333,70,0.33254796666666664,0.0020969202295006133,1.4913528351109058e-06,34.818,0.011944315244778328,4.513890113359568e-06,59.739000000000004,0.299781587159719,1.1000000000000014,-0.0005230209752118536
S079,12832.0,12861.984375,N2,0.012791666666666639,57.26887172327212,-134.73,159.53,294.26,3.47,55.43154273028549,1031.25,1019.6695963541666,0.48401083981203935,0.1496378730654628,0.4377181995556299,63.05743528377,0.26112978859902375,63.48228099241551,0.11145833333333334,82,0.33314564999999996,0.001582240571942209,1.4396227863560286e-07,34.830333333333336,0.011396880664853287,6.354168390345176e-06,58.783,0.24280513448717145,0.6899999999999977,-0.00040642372136060183
S079,12862.0,12891.984375,N2,0.6384479166666666,53.89510431623362,-126.47,119.15,245.62,7.57,31.126489277675514,984.375,983.6995442708334,0.48717826812220955,0.1529193630552463,0.4305801964275128,63.069557777009514,0.2769749912802324,63.48228099241551,0.13541666666666666,100,0.3340848166666667,0.0016086323641701238,7.983266054488376e-07,34.839666666666666,0.014940623220675698,9.20139138492508e-06,58.87833333333333,0.2972550345335723,0.9499999999999957,0.00044621539882145115
S079,12892.0,12921.984375,N2,-0.7271562499999998,58.128281257173654,-132.26,220.03,352.28999999999996,5.675,28.902437342404138,1000.0,993.2291666666666,0.48893574191525635,0.1899835519196333,0.4422166387140533,63.05889942251604,0.2780053135120698,63.48228099241551,0.134375,98,0.33592065000000004,0.0014935229305794505,6.426351569648271e-07,34.853666666666676,0.0160173517023093,1.1458336441607446e-06,60.266,0.4717598259001432,1.6700000000000017,0.0008385418941357137
S079,12922.0,12951.984375,N2,0.08083854166666662,55.820165446680335,-129.58,153.35,282.93,4.945,42.967258003610716,953.125,956.0872395833334,0.48818394863855713,0.16827350421923892,0.4422166387140533,63.06233690884743,0.2719471670875064,63.48228099241551,0.13958333333333334,98,0.33737208333333335,0.0015078970598338402,9.344503402914312e-07,34.874,0.017048949136725226,1.527778192214101e-05,62.15,0.2989314302645333,1.1199999999999974,0.00038652788263017496
S079,12952.0,12981.984375,N2,-0.5068489583333334,54.419952511675525,-122.51,122.99,245.5,6.49,26.67662469384487,968.75,975.9033203125,0.48724953501773605,0.18483053424390922,0.4382916943942698,63.058170624570074,0.26699091609247927,63.48228099241551,0.125,86,0.3393144666666667,0.0017000976243210957,7.759381445144738e-07,34.88466666666667,0.012578641509409341,1.0972225198629697e-05,62.71233333333334,0.19944394924110573,0.6499999999999986,0.00016163198828992627
S079,12982.0,13011.984375,N2,0.8184531249999999,56.00837253215744,-126.39,120.93,247.32,8.865,31.84572055232187,1000.0,1010.9293619791666,0.46931794297386736,0.17950549357115014,0.4141054092022411,63.072445477701564,0.26211599664687163,63.48228099241551,0.12395833333333334,90,0.3404564333333333,0.0015159210991634413,1.1114712216447557e-06,34.89533333333332,0.01359738536957982,5.277779209467496e-06,61.212333333333326,0.486474962242548,1.7299999999999969,-0.0008640627343920173
S079,13012.0,13041.984375,N2,-0.7072135416666668,55.275997924583564,-133.91,116.77,250.68,6.720000000000001,53.47140202849669,1000.0,991.9596354166666,0.48729963831301987,0.1874276480775686,0.43539174569831046,63.065888142144374,0.26810043367232755,63.48228099241551,0.12604166666666666,93,0.3421106333333333,0.0016164402449690392,1.2962646745509703e-06,34.90799999999999,0.010770329614268317,9.513891469696487e-06,59.96733333333332,0.19250858566712173,0.6999999999999957,-0.00022250006035700408
S079,13042.0,13071.984375,N2,0.5792812499999996,55.873152079845696,-120.08,120.99,241.07,7.415,36.17266590708395,984.375,981.0139973958334,0.4717255098012214,0.1899835519196333,0.41962362227953753,63.072175867100555,0.2594186890091534,63.48228099241551,0.12395833333333334,93,0.3433166416666666,0.0015798888663227414,5.367104320503585e-07,34.922666666666665,0.012092238098146593,8.125002204049176e-06,60.03033333333333,0.3183130883614782,0.9500000000000028,0.0004898959662261195
S079,13072.0,13101.984375,N2,0.09880208333333325,57.341353991927114,-141.08,135.49,276.57000000000005,4.0649999999999995,57.63596568169871,1000.0,1005.6884765625,0.48783375327393375,0.1496378730654628,0.45734267938700945,63.052937589240166,0.27382117166616526,63.48228099241551,0.12395833333333334,90,0.34509912499999995,0.0015086968911530814,9.434071569572295e-07,34.92466666666667,0.012578641509410118,-5.000001356337289e-06,60.488666666666674,0.31107055291185814,0.8000000000000043,-0.0005144445839964696
S079,13102.0,13131.984375,N2,-0.03497916666666665,57.30845384026746,-131.43,127.8,259.23,6.43,50.4259404672358,984.375,1002.734375,0.4834220015651152,0.15612494995995993,0.4525966747557918,63.05398628745297,0.2582407049509899,63.48228099241551,0.115625,93,0.34667864166666656,0.0015507840479137924,1.0172075241990885e-06,34.932,0.010770329614270692,4.930556893055483e-06,60.04933333333334,0.30443317091860295,0.9400000000000048,-0.0004972223571024182
S079,13132.0,13161.984375,N2,-0.5687031249999998,60.859107746185906,-138.33,126.58,264.91,7.165,39.5732666064417,1015.625,1014.1927083333334,0.477841237508745,0.1428261375083551,0.4377181995556299,63.07184384074673,0.2657809783670352,63.48228099241551,0.13541666666666666,93,0.34793799166666667,0.0015852711203231382,-1.60698828314568e-09,34.946000000000005,0.014047538337137157,1.263889231740803e-05,59.707,0.16180543872194247,0.44000000000000483,0.000182812549591079
S079,13162.0,13191.984375,N2,0.24526562499999985,59.44107752756318,-154.48,134.06,288.53999999999996,6.050000000000001,43.684573676887055,968.75,960.7828776041666,0.49607727717620315,0.162326296048696,0.45210613421764395,63.05880113968225,0.2778167729688034,63.48228099241551,0.13958333333333334,108,0.34978421666666665,0.0015771281980408464,1.2020511073272367e-06,34.956,0.01171893055416335,6.875001864962935e-06,59.82733333333333,0.39612231556539274,1.1099999999999994,0.000676527961297732
S079,13192.0,13221.984375,N2,0.1681770833333334,58.16460683831828,-134.04,133.2,267.24,6.02,52.984277555450525,968.75,982.9833984375,0.4856166880455544,0.162326296048696,0.4433096406576333,63.06045158229696,0.26074490109999626,63.48228099241551,0.11979166666666667,94,0.3517586750000001,0.0014588440010415832,2.0678846755329813e-07,34.97066666666667,0.01209223809814457,8.680557910308233e-06,60.980000000000004,0.28733255993708684,0.7999999999999972,0.000509791804956543
S079,13222.0,13251.984375,N2,0.08182291666666626,60.662514700612064,-138.38,135.64,274.02,3.88,55.94656777837721,984.375,1004.8177083333334,0.488122821520249,0.1529193630552463,0.4596087840489997,63.04556395736347,0.2593876725296687,63.48228099241551,0.10729166666666666,79,0.3530928083333334,0.001506435551756928,2.649156534601933e-07,34.977000000000004,0.013453624047074184,6.4236128536275495e-06,60.91733333333333,0.38238665713588316,1.2199999999999989,-0.0006625696241779575
S079,13252.0,13281.984375,N2,-0.3747760416666669,61.06643810528422,-139.85,134.68,274.53,5.955,35.14546452607469,1000.0,1005.5582682291666,0.47364458479785587,0.1496378730654628,0.43886196735293537,63.064215392003014,0.2490555313935338,63.48228099241551,0.109375,85,0.354683175,0.0014293156617912084,-1.3230884665495996e-07,34.98166666666667,0.013186693629902324,9.340280311491135e-06,59.61033333333333,0.2529622281861247,0.7700000000000031,-0.00043225706170167715
S079,13282.0,13311.984375,N2,-0.42596875000000006,63.94368565304049,-151.11,139.07,290.18,5.535,44.16370969746477,1000.0,1011.572265625,0.4877570102434886,0.15925921720229852,0.4433096406576333,63.06126340661748,0.2457455890603691,63.48228099241551,0.10625,80,0.35537681666666665,0.0018775876809678453,1.1714221927686025e-06,34.99,0.013416407864999248,4.444445650077442e-06,59.38,0.023523038352503387,0.09000000000000341,-1.625000440809438e-05
S079,13312.0,13341.984375,N2,1.0716718749999998,64.85194348288198,-141.2,142.79,283.99,6.67,35.50445205012089,1015.625,1007.0556640625,0.4849112175325385,0.1496378730654628,0.42809331796804406,63.0698045615206,0.24101017599202257,63.48228099241551,0.103125,79,0.3575539916666667,0.0019733857390106416,2.217098474690347e-06,35.00833333333333,0.01808928473495299,2.0729172289813934e-05,59.30833333333333,0.08532617157446835,0.21999999999999886,-0.00013496531438946397
S079,13342.0,13371.984375,N2,-0.32363541666666645,62.02981841263586,-145.33,125.83,271.16,5.035,60.8271172365411,1015.625,1016.7805989583334,0.48160160316039924,0.1428261375083551,0.4353917456983104,63.06419874721681,0.2711144374743232,63.48228099241551,0.12916666666666668,95,0.35903745000000004,0.001541525936910135,6.252983467063664e-07,35.02166666666666,0.014624940645653787,8.645835678666245e-06,59.15599999999999,0.10313744874357342,0.28000000000000114,-0.00016145837713171977
S079,13372.0,13401.984375,N2,0.4049166666666662,62.05121314615631,-142.12,141.35,283.47,8.955,42.45146052071268,1000.0,999.7477213541666,0.47506852575882846,0.1529193630552463,0.4279919197056567,63.072195671897106,0.2565959065506171,64.10148204214939,0.125,99,0.35999794166666665,0.0015613706974740385,1.019420632438325e-06,35.033333333333324,0.012472191289245255,5.416668136030565e-06,59.00633333333334,0.07318849332754068,0.21000000000000085,-1.475694844752324e-05
S079,13402.0,13431.984375,N2,-0.38108333333333355,58.65127422576219,-133.53,133.44,266.97,3.615,33.31151486630598,968.75,968.3430989583334,0.49284815669286575,0.12401959270615269,0.4433096406576333,63.071113230673596,0.24640923322443148,63.48228099241551,0.11979166666666667,93,0.3619510916666667,0.0017063514047807417,1.19316981151525e-06,35.03766666666666,0.014985177861991827,2.430556214882674e-07,59.81533333333334,0.48920843092580624,1.4500000000000028,0.0008711807918784707
S079,13432.0,13461.984375,N2,-0.40853124999999996,61.29869166144799,-145.34,159.97,305.31,5.6899999999999995,53.34508597502397,984.375,1001.904296875,0.4737911793155527,0.15925921720229852,0.42809331796804406,63.0614941646055,0.2542054171253971,63.48228099241551,0.10520833333333333,78,0.363434675,0.0014293268588307453,2.968245162826893e-07,35.04399999999999,0.012806248474864593,2.986111921145538e-06,60.876999999999995,0.1493351934407967,0.45000000000000284,0.00022093755993314986
S079,13462.0,13491.984375,N2,0.4084999999999996,65.78444865097298,-153.95,151.91,305.86,3.67,51.52212739464116,1015.625,1015.0146484375,0.4541284387581214,0.17116012950028858,0.4046120827409878,63.07900762417314,0.24631717258273758,63.48228099241551,0.10833333333333334,80,0.36463002499999997,0.001469472668808442,2.0678933560908438e-07,35.054,0.01404753833713716,1.1944447684583362e-05,60.160999999999994,0.4876156273131531,1.5300000000000011,-0.0008681599577256826
S079,13492.0,13521.984375,N2,-0.39096875000000014,61.08318130664684,-177.38,125.26,302.64,4.38,64.72087693169254,984.375,986.328125,0.48551501149695553,0.1496378730654628,0.42746299181917496,63.07391155208403,0.2529292125268436,63.48228099241551,0.121875,87,0.3658145666666666,0.001539164349754622,4.7273016295848504e-07,35.07066666666667,0.010934146311239526,-2.708334068016392e-06,59.13933333333333,0.0606043636126058,0.21000000000000085,2.548611802466296e-05
S079,13522.0,13551.984375,N2,0.5826927083333335,68.87070100686071,-158.06,178.96,337.02,5.265,37.16064837187238,984.375,984.4563802083334,0.47212212991508407,0.1496378730654628,0.4182664600433822,63.07219736224371,0.24791443049272857,63.48228099241551,0.11145833333333334,77,0.36658298333333333,0.0015013955007666141,3.927314433407773e-07,35.078,0.013266499161423103,9.027780226720592e-06,59.958000000000006,0.3066963753725602,1.0200000000000031,0.0005407640355805208
S079,13552.0,13581.984375,N2,-0.944078125,64.73185702367482,-149.96,139.3,289.26,3.13,32.071434184138745,984.375,986.7919921875,0.468169779789697,0.16532992583014122,0.4249068014642218,63.06666559478013,0.25589533572300033,63.48228099241551,0.1125,87,0.36666838333333335,0.0015332346807938112,1.0035375986158884e-07,35.08066666666668,0.013399834161496097,5.694445989162745e-06,60.47733333333334,0.05059205031974356,0.19999999999999574,8.805557944215864e-05
S079,13582.0,13611.984375,N2,0.9291875000000002,64.0018233884643,-144.71,131.82,276.53,7.15,47.80516920771587,984.375,981.2581380208334,0.4774016405385395,0.139283726964862,0.4377181995556299,63.06104300374053,0.2492928941162128,63.48228099241551,0.10208333333333333,79,0.36860006666666667,0.0014916316163479713,8.243235743065187e-07,35.09933333333335,0.012364824660659628,-2.222222825037759e-06,60.54866666666667,0.08754935116201001,0.2700000000000031,8.472224520460283e-05
S079,13612.0,13641.984375,N2,-0.488453125,61.514213760189286,-137.5,136.45,273.95,4.91,54.25446071148105,984.375,990.2669270833334,0.46695373425057385,0.16232629604869597,0.4061164310337068,63.07686983722806,0.2482267862063337,63.48228099241551,0.10729166666666666,78,0.37069194166666664,0.0012887120786262637,-1.5016280115096452e-08,35.107333333333344,0.013399834161494116,1.4027781583056918e-05,60.571,0.12466889481074823,0.3500000000000014,-0.00018503477241611703
S079,13642.0,13671.984375,N2,0.36956770833333313,69.55030203677676,-153.94,168.58,322.52,6.0,40.744231577030725,1015.625,1006.6569010416666,0.4612772406138561,0.1529193630552463,0.41758232721225164,63.06814712086023,0.25096893871148424,63.48228099241551,0.109375,83,0.37214354999999993,0.0016279176517359033,1.483111947458753e-06,35.11666666666667,0.011925695879999683,5.694445989162177e-06,60.22966666666667,0.2060175289198037,0.5499999999999972,-0.00034593759384157806
S079,13672.0,13701.984375,N2,-0.720630208333334,64.74986209419616,-138.64,154.2,292.84,3.46,51.77381735887274,1015.625,1019.775390625,0.45885268870363566,0.11987768650679834,0.40686251900980014,63.08291332913365,0.24196261904318372,63.48228099241551,0.11354166666666667,84,0.3740005416666667,0.001533068605204577,8.07121095681725e-07,35.12,0.013416407864999248,3.4722231641238306e-07,59.654,0.1355384324340028,0.490000000000002,-0.00021597228080845368
S079,13702.0,13731.984375,N2,0.6954166666666668,66.14058195217383,-150.99,139.01,290.0,8.754999999999999,42.07460973987653,1000.0,1010.3841145833334,0.46928094929903136,0.1529193630552463,0.41480835601783894,63.072853287378365,0.2511868935928004,63.48228099241551,0.10833333333333334,79,0.37574015833333335,0.001530299932452422,7.240429481453318e-07,35.12466666666667,0.013597385369580958,1.4722226215882004e-05,58.836333333333336,0.20582327910666973,0.7899999999999991,-0.00017239588009870942
S079,13732.0,13761.984375,N2,-0.33437500000000014,65.48949849439126,-150.27,154.15,304.42,4.0,55.47241771911665,1000.0,1017.578125,0.45745654772399486,0.13188915142607024,0.43597825625890513,63.05583006921651,0.25372744318693613,63.48228099241551,0.09791666666666667,74,0.3774903666666667,0.0014869926862257443,3.254488730058786e-07,35.135999999999996,0.0135646599662492,1.0486113955649856e-05,58.83166666666667,0.06429532556017536,0.21000000000000085,-5.038195811142491e-05
S079,13762.0,13791.984375,N2,0.2088125000000002,64.04189579995538,-148.58,160.41,308.99,6.029999999999999,59.2442947758109,1015.625,1006.8603515625,0.4557502971291772,0.16532992583014122,0.4202966875381669,63.059444530465846,0.2565745683099608,63.48228099241551,0.096875,77,0.3794968583333333,0.001854523772184443,1.0002752279392427e-06,35.14799999999999,0.009797958971130763,5.000001356336179e-06,59.188,0.16259151269362113,0.5,0.00019451394165417307
S079,13792.0,13821.984375,N2,-0.494671875,65.35398324458886,-147.87,154.31,302.18,3.8600000000000003,42.38425553653988,953.125,966.6910807291666,0.47144940336218005,0.17399263633843817,0.43597825625890513,63.053692639613594,0.26725987815951924,63.48228099241551,0.11354166666666667,83,0.380115925,0.0014835827365002852,4.138584021968321e-07,35.15366666666666,0.009122621455601542,2.81250076293952e-06,59.61900000000001,0.405547777703195,1.25,0.000726632141556028
S079,13822.0,13851.984375,N2,1.241463541666667,62.12638869502338,-140.71,153.97,294.68,6.13,53.3355330967246,953.125,950.1302083333334,0.4753242679710581,0.16827350421923892,0.42096609910683097,63.06318162156276,0.2430680956503487,63.48228099241551,0.096875,81,0.3817382583333334,0.001405807048731756,-3.171808586102565e-07,35.16033333333333,0.011685698761971737,5.65972375752009e-06,60.90266666666666,0.42144935111535703,1.3800000000000026,0.0007307640871213344
S079,13852.0,13881.984375,N2,-0.5559270833333336,62.18051041854955,-143.95,147.27,291.22,8.155000000000001,46.0455403489231,984.375,985.8072916666666,0.45841736918991194,0.17950549357115012,0.4098068121247973,63.06424180324674,0.2648693671011922,63.48228099241551,0.109375,85,0.38197301666666666,0.0014916319976418077,1.102523736578704e-06,35.164333333333325,0.011742609969206778,3.472223164119879e-08,61.910333333333334,0.18194290923864548,0.5999999999999943,-0.0002237847829277292
S079,13882.0,13911.984375,N2,-0.08683854166666656,63.74806915503218,-137.47,141.14,278.61,4.735,50.37695463525443,984.375,985.4817708333334,0.475214681018543,0.15612494995995993,0.43886196735293537,63.05605174080759,0.25610322254452017,63.48228099241551,0.10208333333333333,82,0.3839367000000001,0.0015568428768932825,4.983035205901498e-07,35.16799999999999,0.013266499161422817,2.3611117516043547e-06,61.068,0.3418323175671569,1.009999999999998,-0.000590208493437634
S079,13912.0,13941.984375,N2,-0.5250208333333334,76.00793882740955,-168.59,452.65,621.24,3.9450000000000003,59.183017257946446,968.75,987.5081380208334,0.5375151402906403,0.16532992583014122,0.43615741416437664,63.08598183325418,0.25318860096684637,63.60031446463138,0.12916666666666668,96,0.38593246666666664,0.0014965268008143176,7.214481123719884e-07,35.18133333333333,0.019275776393069554,1.0416669492370296e-05,60.287333333333336,0.07478561953269396,0.2700000000000031,-4.7013901642225995e-05
S079,13942.0,13971.984375,N2,0.8437083333333332,84.34526375138043,-192.43,272.67,465.1,-4.365,78.39889157078254,953.125,983.7727864583334,0.4987734521776617,0.19741988090108856,0.43361244016274353,63.069462819672076,0.28163446404261466,63.48228099241551,0.14583333333333334,101,0.38657273333333336,0.0015056347926668226,7.625978631179081e-07,35.172666666666665,0.012364824660662296,4.6527790399250045e-06,60.089333333333336,0.14068720229249312,0.46999999999999886,-7.048613023169793e-05
S079,13972.0,14001.984375,N2,-1.1248385416666664,71.34646633006032,-149.34,193.77,343.11,-3.245,61.774043170800866,937.5,942.3828125,0.506194269909181,0.2304038573895845,0.405366293119226,63.10526189381362,0.28846660094940585,63.48228099241551,0.21770833333333334,147,0.38749059999999996,0.001574197543723994,-1.6507469755715702e-07,35.17633333333333,0.014487542541401926,6.701390706758274e-06,60.96466666666666,0.42785303811264713,1.3500000000000014,0.0007677085415876035
S079,14002.0,14031.984375,N2,1.1285416666666663,77.45099931676111,-173.73,235.5,409.23,2.45,62.851527074226034,1000.0,976.9938151041666,0.5145021444048822,0.22838645595544604,0.4090767042988393,63.09760532534851,0.2859817125032139,63.48228099241551,0.196875,129,0.3892410333333333,0.0015350936069902122,8.333426739753334e-07,35.17799999999999,0.01796292478041075,5.208334746184778e-06,62.794000000000004,0.45603801011173045,1.509999999999998,0.0006593057344036822
S079,14032.0,14061.984375,N2,0.6227968750000002,74.62112887321463,-160.52,179.79,340.31,2.2699999999999996,79.01027692004163,968.75,967.1549479166666,0.5091086556560288,0.23437268517375393,0.4222940305804581,63.10025667548975,0.2800728845237051,63.48228099241551,0.20729166666666668,127,0.391194175,0.0017340099272231233,1.3209888566050513e-06,35.19266666666667,0.017876116903722726,7.222224181375492e-06,62.85733333333334,0.1510393620513833,0.490000000000002,-0.0002434028438050253
S079,14062.0,14091.984375,N2,-0.814072916666667,74.49223711914898,-157.17,186.41,343.58,3.7350000000000003,62.400165401107756,953.125,945.2229817708334,0.5111219616903799,0.24016912082368588,0.4182664600433822,63.09801749621496,0.2749631139237434,63.48228099241551,0.2,131,0.39237879166666667,0.001614306290102318,1.479070062681773e-06,35.20333333333333,0.017950549357114518,1.1805558758017802e-05,62.00633333333334,0.23161006502788828,0.7800000000000011,-9.961808257869061e-05
S079,14092.0,14121.984375,N2,-0.3082395833333334,75.3831624693479,-172.44,166.39,338.83,3.915,83.0516405274402,953.125,958.9436848958334,0.5069300559221382,0.23239907830544904,0.4061164310337068,63.09439645746174,0.2836705870780162,63.48228099241551,0.184375,120,0.39438512499999995,0.0017710042751807016,6.720060416683027e-07,35.215999999999994,0.013564659966249094,1.458333728931435e-06,62.163,0.09129256997879631,0.29000000000000625,0.00010461808393502793
S079,14122.0,14151.984375,N2,0.3929114583333329,75.91058447904675,-169.18,182.24,351.42,4.21,69.97896133745542,968.75,973.7548828125,0.5038038897974092,0.2582808246366733,0.3960402419753438,63.08669523001432,0.2871003691350124,63.48228099241551,0.17604166666666668,103,0.39494011666666656,0.0015272460955552834,4.513421363232769e-07,35.22933333333333,0.014126413400277675,1.3541670340078804e-05,62.160333333333334,0.14786217306066485,0.509999999999998,-0.00014593753958809202
S079,14152.0,14181.984375,N2,0.6573593750000003,77.55577328107184,-175.19,201.85,377.03999999999996,5.535,71.39093375297513,1000.0,993.4326171875,0.5022075831737532,0.2157809420003434,0.41758232721225164,63.09436578513729,0.2680289249889539,63.48228099241551,0.17395833333333333,110,0.3969679166666667,0.001782717348054803,1.3313145972533056e-06,35.233333333333334,0.015563490039906015,7.986113277484726e-06,61.208666666666666,0.4111587960333032,1.1199999999999974,-0.0007298613090986621
S079,14182.0,14211.984375,N2,-0.9552083333333338,77.80322948295547,-182.54,177.06,359.6,3.545,52.587731315003914,984.375,996.9645182291666,0.49946911920725057,0.2221950938302244,0.405366293119226,63.097301248670405,0.2687783495831274,63.48228099241551,0.17604166666666668,116,0.398056575,0.0014734097906019472,8.394119030522793e-07,35.23799999999999,0.014236104336043042,-4.444445650077983e-06,60.31733333333332,0.23730336889494133,0.6599999999999966,-0.00041965289161590926
S079,14212.0,14241.984375,N2,-0.3230677083333342,82.44413694230828,-191.46,200.83,392.29,2.12,43.017087777968584,984.375,994.0511067708334,0.48729963831301987,0.2221950938302244,0.3952352938440594,63.09178101970157,0.25836233347533444,63.48228099241551,0.15104166666666666,109,0.39905982500000003,0.0017668378658991359,1.921243359712287e-06,35.24733333333334,0.014360439485694257,6.2500016954224435e-06,59.95566666666666,0.12571617062078938,0.35999999999999943,-5.3993070202113514e-05
S079,14242.0,14271.984375,N2,-0.00741145833333358,75.4536493430561,-188.05,180.31,368.36,1.545,87.12359256784289,984.375,990.966796875,0.5006246098625197,0.2363252195069329,0.40686251900980014,63.08346013328578,0.2775925289810044,63.48228099241551,0.16354166666666667,105,0.40138648333333327,0.0016989812731130702,1.268396177407825e-06,35.25599999999999,0.014742229591665552,-4.513890113359939e-06,60.12966666666667,0.04110825815926686,0.13000000000000256,4.864584652936433e-05
S079,14272.0,14301.984375,N2,0.49612499999999987,75.88104721361175,-157.04,286.28,443.31999999999994,2.645,86.76649236181618,968.75,976.6520182291666,0.5018023072441532,0.23239907830544904,0.41410540920224104,63.075824027111125,0.2637991045853021,63.48228099241551,0.1375,95,0.4029553083333334,0.0017780967671259858,1.2014684248774995e-06,35.263333333333335,0.010749676997732492,-3.055556384428528e-06,60.351,0.09802550688468828,0.28000000000000114,0.0001394792045028228
S079,14302.0,14331.984375,N2,0.11365104166666687,79.45287332787476,-173.61,206.26,379.87,2.675,82.11729834765067,1015.625,1008.154296875,0.49514899378032334,0.23040385738958447,0.3903123748998999,63.09582573660201,0.27215121351835103,63.48228099241551,0.171875,113,0.40494025833333325,0.0013274199504793264,-7.471725117113077e-08,35.26200000000001,0.009797958971134245,-4.1666677969483013e-07,60.45766666666666,0.08325396220134033,0.3299999999999983,-8.253474461120454e-05
S079,14332.0,14361.984375,N2,-0.43959375000000034,78.409096503674,-161.9,251.88,413.78,1.3,78.46734210868529,1000.0,995.5403645833334,0.5018023072441532,0.23437268517375393,0.40232478717449166,63.08526232373662,0.2635701272997282,63.48228099241551,0.14583333333333334,105,0.4058367916666666,0.0013449751354320842,2.9313831736607867e-07,35.26333333333333,0.011925695880000213,6.250001695422665e-06,60.06033333333333,0.04370227555733032,0.14999999999999858,-5.520834830954751e-06
S079,14362.0,14391.984375,N2,0.4699687499999998,74.74127503009314,-165.66,214.56,380.22,3.1900000000000004,90.15857288784673,984.375,976.0172526041666,0.4877125160008598,0.23040385738958447,0.3919712911114225,63.09167941002749,0.27269804237611117,63.48228099241551,0.1625,110,0.4066159583333333,0.001655032267539586,8.722400369574721e-07,35.26866666666667,0.012578641509409162,5.2777792094676435e-06,60.51700000000001,0.4210475032582427,1.4500000000000028,0.0006733682382183798
S079,14392.0,14421.984375,N2,-1.01846875,75.01390017890755,-160.21,187.12,347.33000000000004,0.25,82.86658506215508,984.375,981.8603515625,0.4698875087011074,0.21578094200034337,0.39763706363340934,63.09189035427992,0.27163981701666184,63.48228099241551,0.16145833333333334,109,0.40800353333333333,0.0017018322426791154,7.360292795218313e-07,35.27066666666667,0.013148721948876963,7.4305575712234e-06,61.953,0.10933587395422094,0.4299999999999997,4.045139986203413e-05
S079,14422.0,14451.984375,N2,-0.05829166666666647,77.89407048998187,-186.99,183.52,370.51,2.575,93.52669824803577,984.375,988.5009765625,0.493429044769582,0.1899835519196333,0.4090767042988393,63.09420521835575,0.25498600748577105,63.48228099241551,0.15416666666666667,102,0.4107997,0.00157587704998413,1.1717125574307085e-06,35.27866666666667,0.014313940369055065,8.12500220404782e-06,61.38766666666666,0.3304510385653054,1.2199999999999989,-0.0005331598668510931
S079,14452.0,14481.984375,N2,0.8659166666666661,74.17821092289986,-164.35,194.92,359.27,4.295,88.07990708329488,968.75,984.7412109375,0.48798053239857836,0.2179449471770337,0.41962362227953753,63.07859062669708,0.2636845645170577,63.48228099241551,0.146875,104,0.41379859166666666,0.0016181837374859098,1.449362155317417e-06,35.288666666666664,0.01454494948618012,-8.333335593891406e-07,60.25333333333334,0.14109886211053915,0.4799999999999969,-4.861112429771617e-06
S079,14482.0,14511.984375,N2,-0.6038593750000001,79.82128027565587,-178.5,200.75,379.25,-0.15,71.17847057069818,953.125,977.3111979166666,0.49454928273687304,0.1899835519196333,0.39763706363340934,63.09741282978195,0.2558369039130905,63.48228099241551,0.153125,101,0.4165095916666666,0.0014743154823840198,7.035451127238305e-07,35.29200000000001,0.014000000000000361,8.541668983743168e-06,60.702333333333335,0.0929043713838175,0.3500000000000014,8.177085551509732e-05
S079,14512.0,14541.984375,N2,0.37928645833333346,80.00349134283417,-177.84,192.06,369.9,0.615,79.826401801816,968.75,966.7154947916666,0.49528593733541654,0.21578094200034337,0.41480835601783894,63.078851343301565,0.2760824931029532,63.48228099241551,0.15416666666666667,100,0.4182385416666666,0.00177146621425979,1.1058677044997073e-06,35.290000000000006,0.013662601021278828,2.22222282503877e-06,60.77900000000001,0.13456968455042126,0.5499999999999972,-7.812502119276697e-06
S079,14542.0,14571.984375,N2,0.1137083333333333,76.77551147256047,-246.6,184.49,431.09000000000003,1.7349999999999999,83.22572077945178,1000.0,999.4222005208334,0.481588084708637,0.20219874281810515,0.3799671038392666,63.10347115757118,0.2558701472468453,63.48228099241551,0.15729166666666666,106,0.4189322416666666,0.001554464929355833,1.3229886401336096e-07,35.294000000000004,0.012000000000000455,-4.305556723512771e-06,60.035666666666664,0.20037769891438098,0.6199999999999974,-0.0003557292631644056
S079,14572.0,14601.984375,N2,0.22928645833333333,75.42297078574344,-170.0,204.41,374.40999999999997,-0.23,72.32982040919404,906.25,927.0914713541666,0.5068925962831443,0.22008274564480412,0.42934361238988983,63.07057563064778,0.264948961261939,63.48228099241551,0.1375,96,0.42015958333333336,0.0014251402362769668,1.3595923827017433e-08,35.302,0.013266499161422102,-2.6388896047343397e-06,60.504333333333335,0.6099272269887798,1.9500000000000028,0.0010625350104532907
S079,14602.0,14631.984375,N2,-0.464369791666667,78.47299886491427,-187.86,218.43,406.29,0.885,78.1034041332142,968.75,978.7760416666666,0.4777503979154108,0.19982631347136334,0.4046120827409878,63.092501796083766,0.253657468191321,63.48228099241551,0.14166666666666666,99,0.4206291833333333,0.0017059837923386672,2.6818062830420734e-07,35.30533333333334,0.01687865186822912,-1.159722536817093e-05,62.32833333333334,0.3430945771779105,0.9200000000000017,0.0005985765512631707
S079,14632.0,14661.984375,N2,0.03681770833333336,77.29468903858101,-170.38,188.57,358.95,2.55,83.9256077068893,984.375,988.5579427083334,0.5056924227125504,0.20453835214941965,0.3992166265707825,63.09602501883702,0.26013167619841676,63.48228099241551,0.15729166666666666,106,0.4220272833333334,0.0013429248687307617,6.069728209019125e-07,35.31466666666667,0.013349989596332951,4.79166796648864e-06,61.86033333333334,0.6838298196351358,2.0,-0.001219826719788064
S079,14662.0,14691.984375,N2,0.365072916666667,73.3414324573124,-168.15,185.39,353.53999999999996,4.1850000000000005,59.39624919230638,968.75,979.2154947916666,0.48429770888714035,0.20912350152216008,0.40155405579102577,63.086883223032444,0.25281456340366726,63.48228099241551,0.134375,103,0.42343598333333327,0.0016249206595160919,4.530361471994759e-07,35.318666666666665,0.01499629583893549,-9.58333593298044e-06,60.18666666666666,0.37642470104332365,0.9600000000000009,-0.0006566668447989491
S079,14692.0,14721.984375,N2,-0.3686770833333334,84.18869152905806,-179.06,377.01,556.0699999999999,-3.675,93.3437783067721,1000.0,973.1852213541666,0.5206655979902605,0.19982631347136334,0.42809331796804406,63.08247996745484,0.2575774750633394,63.48228099241551,0.13645833333333332,101,0.424353825,0.0013926985056746245,5.787633948468407e-07,35.318333333333335,0.01368291716784832,-9.270835848207946e-06,59.782666666666664,0.03549021774454978,0.10000000000000142,3.840278819520043e-05
S079,14722.0,14751.984375,N2,1.3712760416666663,74.09696121177734,-171.16,181.5,352.65999999999997,0.98,94.21758921990492,984.375,986.2548828125,0.49225666401166057,0.20912350152216008,0.3960402419753438,63.09807460079489,0.25343968222215296,63.48228099241551,0.15520833333333334,109,0.42633914166666664,0.0014879122078482636,7.632834101788763e-07,35.312,0.014922019523732403,-1.1805558758021157e-06,60.441,0.927549998652364,2.440000000000005,0.0015292712481747097
S079,14752.0,14781.984375,N2,-1.2695937499999999,76.22451961927426,-174.89,240.95,415.84,-0.030000000000000002,71.44829882575037,984.375,980.7779947916666,0.4894713967780844,0.21794494717703367,0.4083426338226542,63.08066745814901,0.2665702554473101,63.48228099241551,0.14270833333333333,97,0.42753440833333334,0.0013948640345677289,2.7130193991480706e-07,35.315333333333335,0.014544949486180122,-7.777779887634968e-06,62.00433333333333,0.12929767549685062,0.3299999999999983,0.00020628477818054937
S079,14782.0,14811.984375,N2,0.032177083333333203,74.78068346386524,-193.76,170.85,364.61,0.44,72.64180831764084,984.375,992.5944010416666,0.49186083736493325,0.2179449471770337,0.4274629918191749,63.066733737756934,0.2712083778309982,63.48228099241551,0.13541666666666666,96,0.42855894166666675,0.0014085701751293436,2.3899637559580614e-07,35.32,0.011254628677421148,-4.236112260228942e-06,61.63633333333334,0.7311747777074608,1.8999999999999986,-0.0011830905987116412
S079,14812.0,14841.984375,N2,-0.09127083333333345,80.5853717737023,-189.03,248.88,437.90999999999997,-2.57,85.17799799675554,968.75,948.9501953125,0.5003471017426026,0.20912350152216008,0.40232478717449166,63.085613912959545,0.26634981698307353,63.48228099241551,0.14895833333333333,109,0.4296688333333334,0.001480519071887365,8.693921629210551e-07,35.31666666666667,0.013984117975601045,3.1944453109931026e-06,60.901666666666664,0.26942015927213464,0.8100000000000023,0.0004832292977510037
S079,14842.0,14871.984375,N2,0.06190104166666709,81.3586956629701,-187.7,208.46,396.15999999999997,-2.42,85.06749278487544,1000.0,990.673828125,0.49357745754564425,0.19249988726547926,0.4086733278413076,63.09429060283549,0.25015326957563255,64.10148204214939,0.14583333333333334,107,0.42989299166666667,0.0014498686003441457,2.1432080466603142e-08,35.32333333333333,0.012736648783027858,-9.375002543132357e-06,61.439,0.11562439189029289,0.3200000000000003,0.0001876042175575676
S079,14872.0,14901.984375,N2,1.1405208333333339,82.1254987240031,-178.42,225.28,403.7,4.525,84.6617296837008,1062.5,1020.3776041666666,0.5023382824352529,0.22428271082497642,0.4046120827409878,63.08553728455897,0.28391991568553987,63.48228099241551,0.16041666666666668,106,0.4308641333333334,0.0015613184062053267,8.89860484445661e-07,35.328666666666656,0.008055363982396112,2.77777853129916e-06,60.90833333333333,0.39251397710428415,1.0700000000000003,-0.0006954515775422038
S079,14902.0,14931.984375,N2,-2.554151041666666,83.44262185096177,-209.83,201.9,411.73,-2.665,82.01482335878194,984.375,980.0048828125,0.502839161384853,0.2162430755153407,0.4086733278413076,63.08736050969114,0.2710822512298898,64.45153217728807,0.15416666666666667,109,0.43194207500000004,0.0015883969023436763,5.39413557783625e-07,35.33366666666666,0.011967548714010763,-5.52083483095643e-06,60.19833333333333,0.16785079353070928,0.4200000000000017,-0.0002854514663225541
S079,14932.0,14961.984375,N2,1.4548177083333336,87.39738531479419,-198.2,485.14,683.3399999999999,-1.075,84.20512991828099,937.5,940.0716145833334,0.5164975781781448,0.23632521950693283,0.42425895361467886,63.07574860695398,0.288567159736827,63.48228099241551,0.16770833333333332,113,0.4329346166666667,0.0016644660764708347,1.0817811094241282e-06,35.33633333333333,0.013535960336164414,-2.2569450566790806e-06,60.37666666666667,0.09209898057102542,0.44999999999999574,0.00014354170560484616
S079,14962.0,14991.984375,N2,-0.21470312500000024,79.91349219765311,-178.87,206.61,385.48,-1.355,68.91879351285031,921.875,927.1647135416666,0.5182760133767205,0.24762544169571915,0.4516126582100589,63.06974707197161,0.3005621580677534,63.48228099241551,0.19166666666666668,131,0.43348960000000003,0.0013608873416512735,5.581607416885713e-07,35.342666666666666,0.015691469727919124,6.45833508526897e-06,61.867666666666665,0.6622320003006673,2.25,0.0011909378230625606
S079,14992.0,15021.984375,N2,0.23494791666666687,78.33531089567646,-186.94,191.98,378.91999999999996,0.63,68.51680780209254,937.5,944.4010416666666,0.5189288095442379,0.23437268517375393,0.4399928976699509,63.07413314598515,0.27872247105642434,63.48228099241551,0.17395833333333333,118,0.43546423333333334,0.0015884566447411242,9.218813264652073e-07,35.343666666666664,0.018705317128796965,-2.1180561301158648e-06,63.525666666666666,0.3231478849622189,0.9699999999999989,0.0005739932112611792
S079,15022.0,15051.984375,N2,-0.2895000000000001,76.51646303968948,-175.74,190.17,365.90999999999997,-2.13,74.15069493826755,890.625,881.6080729166666,0.5210666144234024,0.23239907830544904,0.43480194844894615,63.08800684034751,0.28368335446450016,63.48228099241551,0.19479166666666667,118,0.43722508333333326,0.0018994767287480987,-1.0193882973601107e-06,35.35633333333333,0.01580787426850348,3.923612175459041e-06,64.06400000000001,0.2750345432850199,0.8299999999999983,0.0004556251235962232
S079,15052.0,15081.984375,W,-3.5589531249999995,106.01277354884475,-558.54,301.89,860.43,0.535,61.909706130934666,953.125,941.4794921875,1.1845353160334882,0.4978033343823866,0.9322538400147365,63.025316241681686,0.4109594092056221,65.92419889539804,0.18645833333333334,123,0.43398065,0.0016256107244663465,-7.03844374957784e-07,35.36933333333333,0.01364632632697156,-1.0416669492367852e-05,64.85533333333333,0.25867268034246643,0.8500000000000085,0.00044152789754988635
S079,15082.0,15111.984375,N1,4.332583333333334,198.4387409136878,-1412.98,1745.48,3158.46,0.62,99.63890385976957,1000.0,910.3271484375,0.9034054975787759,0.9453261305261564,1.0438123733858176,63.205834706691014,0.5894565551892006,69.4334213473598,0.103125,79,0.4348238,0.0016267482831300842,1.6978693841876567e-07,35.163,0.030127506811329162,-2.6493062742259595e-05,65.98333333333333,0.1791151088608175,0.75,0.00021055561267242253
S079,15112.0,15141.984375,N2,-0.15502083333333327,53.258314589519564,-140.69,145.48,286.16999999999996,6.275,47.976453081859404,890.625,866.9677734375,0.4986048243181502,0.3443744328488978,0.29777640929152793,63.21691448330002,0.3413427570633083,64.19501538281614,0.07916666666666666,55,0.43560293333333333,0.0015473173545060381,3.9075184210933357e-07,35.166999999999994,0.01100000000000117,1.3854170424852158e-05,66.496,0.23067437366700938,0.8100000000000023,0.0003253473104783307
S079,15142.0,15171.984375,N2,-0.4510000000000003,51.21077954192523,-123.03,113.31,236.34,6.470000000000001,68.65264279942672,843.75,856.7545572916666,0.5034602488997738,0.382617935250035,0.27393852906871885,63.226818577902456,0.360318170063011,64.19501538281614,0.07604166666666666,59,0.43519737499999994,0.0015893448024395683,4.436639658376623e-07,35.21666666666667,0.023990738953928475,3.2638897742756587e-05,67.37133333333333,0.278923326780357,1.0,0.00046173623636508085
S079,15172.0,15201.984375,N2,0.04659895833333305,49.64816454568923,-140.42,133.55,273.97,4.365,53.71200036432587,828.125,830.1920572916666,0.5072296334419615,0.4299636107826129,0.23951765404082895,63.228094564734754,0.3633401248066107,64.19501538281614,0.053125,39,0.4346317,0.0016451631509772325,8.240748763223956e-07,35.281333333333336,0.02404625172916267,3.534723181077317e-05,69.52033333333335,1.021536370157987,2.8700000000000045,0.001822118549836846
S079,15202.0,15231.984375,N2,0.11814062499999979,51.93456829301952,-129.54,116.95,246.49,4.705,49.24035985549691,859.375,863.5498046875,0.507537585841351,0.4679843283671177,0.26789268944029726,63.18500215530116,0.3809015199789952,64.19501538281614,0.06979166666666667,56,0.4363073249999999,0.001559153045526645,9.277391839570313e-07,35.327000000000005,0.020355179521028735,2.8645841104014584e-05,71.25800000000001,0.161087967686395,0.5499999999999972,0.00011638892046140295
S079,15232.0,15261.984375,N2,-0.6203437500000002,56.69079810496294,-135.0,154.24,289.24,0.635,147.32519440840133,828.125,844.9951171875,0.5059369745553512,0.4898979485566356,0.29107081994288303,63.15059082539198,0.4142805859798405,64.19501538281614,0.07916666666666666,57,0.4360405083333333,0.0014740898491150056,-4.0941873085360293e-07,35.35800000000001,0.019390719429663708,-2.0833338984684734e-07,69.94833333333332,0.8599305527515315,2.200000000000003,-0.0014310767770933082
S079,15262.0,15291.984375,N2,0.7407760416666668,66.21768732096692,-191.68,361.21,552.89,3.58,24.93751850727683,812.5,825.4964192708334,0.45490669830929803,0.49851232675888324,0.26677854098588133,63.12534685738551,0.40692030518151145,64.5445582524197,0.07083333333333333,57,0.43768399166666666,0.0016933117920012743,1.1052756904502208e-06,35.379999999999995,0.020330600909302457,2.5694451414510886e-05,70.3,0.513964979351706,1.6299999999999955,0.0009256252510919185
S079,15292.0,15321.984375,N2,0.28692187499999994,43.445029086744356,-104.46,100.05,204.51,4.140000000000001,29.384984648462176,812.5,809.9202473958334,0.44352865175832273,0.49132999596051086,0.2628449288025589,63.09476252057475,0.40039664368746936,64.5445582524197,0.06770833333333333,53,0.4385378083333334,0.0015763530288603572,-3.93211695207162e-07,35.41866666666667,0.012310790208413747,2.2916672883206748e-06,72.99399999999999,1.1902257488952803,3.1599999999999966,0.0020003477648512804
S079,15322.0,15351.984375,N2,-0.27491666666666653,52.65497590835763,-153.55,183.01,336.56,2.505,46.8318818603891,796.875,811.9059244791666,0.40824297469630616,0.48358021711903065,0.2717532454063592,63.096336152450526,0.4008708898108011,64.5445582524197,0.07291666666666667,58,0.43985050000000003,0.0015397618322325005,1.5097187255096315e-06,35.43733333333333,0.015040685563572626,1.7569449210464227e-05,73.79433333333333,0.09527795594411538,0.28000000000000114,5.572918178417064e-05
S079,15352.0,15381.984375,R,-0.4577864583333329,45.8889200219107,-115.88,224.98,340.86,1.245,35.185621260753386,812.5,812.0279947916666,0.37122521428672145,0.4759755606908824,0.2367220445773669,63.09267629547153,0.38273952175320014,64.5445582524197,0.3125,198,0.44071493333333334,0.0013930542088837993,-1.464930952943512e-07,35.44733333333333,0.011234866364235468,1.0833336272064754e-05,72.98633333333333,0.29117558658346054,0.9500000000000028,-0.000473715406281306
S079,15382.0,15411.984375,R,0.3192083333333331,46.90846081619069,-111.2,112.09,223.29000000000002,5.045,66.37919304840628,828.125,842.5537109375,0.3577939254033745,0.44492581895749767,0.24406141076012453,63.052894502026895,0.3596802972995585,64.5445582524197,0.25104166666666666,167,0.4423692416666667,0.0013795554416540221,7.422070155726476e-07,35.464000000000006,0.013808210118137688,5.2083347461837174e-06,72.87333333333332,0.21776643961414893,0.7600000000000051,-9.638891503605497e-05
S079,15412.0,15441.984375,R,0.03022395833333326,48.47493348050543,-119.57,108.04,227.61,3.53,63.360056321442045,828.125,846.0530598958334,0.3854110359949059,0.4155075021885886,0.2953616397975352,63.036038749145405,0.381207051663805,64.5445582524197,0.22604166666666667,148,0.44404495,0.0017341030142891383,7.92443791353031e-07,35.472666666666676,0.012364824660661137,4.722223503207624e-06,71.53633333333333,0.4390556785749247,1.2299999999999898,-0.0006951737996890708
S079,15442.0,15471.984375,R,-0.29594791666666603,53.7096691407201,-159.63,159.03,318.65999999999997,-0.55,91.90029910385628,812.5,857.9671223958334,0.38888640872225,0.3870615238742917,0.29632441634502926,63.02018806596282,0.36892338501292615,64.5445582524197,0.19479166666666667,140,0.4451975833333333,0.001690095320701045,5.611251522149434e-07,35.462,0.014236104336040847,-1.1944447684582794e-05,70.10833333333333,0.8457465472718309,2.299999999999997,-0.001220590608884172
S079,15472.0,15501.984375,R,-0.19791145833333298,55.63291123200736,-179.08,184.06,363.14,1.3050000000000002,42.912109497231434,812.5,813.6962890625,0.386485005818107,0.3621031712056969,0.2885548282196797,63.01602981865902,0.36484365675718156,64.5445582524197,0.17083333333333334,122,0.446702375,0.0015115633742503224,1.1746203273167188e-06,35.45466666666666,0.0123107902084119,3.541667627405015e-06,72.05099999999999,0.6150466106998175,2.1500000000000057,0.0007982293832002443
S079,15502.0,15531.984375,R,0.6027239583333335,50.281651644623814,-136.54,200.04,336.58,-0.605,63.90672834321491,789.0625,796.6064453125,0.41318860873563407,0.3396136872936988,0.31290078466131505,63.01942232786862,0.3450740911747342,64.5445582524197,0.171875,110,0.4482926,0.0015742774818944694,9.152315850780091e-07,35.44533333333333,0.011175369742827509,-9.027780226713412e-07,73.66766666666666,0.8344846047444813,2.269999999999996,0.0014403823351731568
S079,15532.0,15561.984375,R,-0.3819270833333327,64.82618724917822,-262.03,315.86,577.89,-1.48,63.14948483150669,796.875,821.9156901041666,0.597560869749313,0.49317829067071567,0.4031330748545282,63.19013714734505,0.42488308163006,65.5286197016235,0.065625,53,0.45014956666666667,0.0016695378638679848,1.6544778793614026e-06,35.467000000000006,0.014410644214144046,4.687501271565488e-06,73.43833333333335,0.4548119269422134,1.519999999999996,-6.038196082410026e-05
S079,15562.0,15591.984375,R,0.28482812500000004,46.270908559577606,-125.9,117.3,243.2,4.285,56.73706730390008,843.75,818.7174479166666,0.4728283232462802,0.4222940305804581,0.2905857948466626,63.071044838563154,0.381295561590529,64.5445582524197,0.22083333333333333,147,0.45061917500000004,0.001643423432262156,-6.344695731525491e-07,35.46666666666667,0.013743685418724812,7.708335424352274e-06,73.13633333333334,0.5448332058733416,1.6000000000000085,0.0002793403535537005
S079,15592.0,15621.984375,R,-0.15152604166666667,49.528989088402696,-114.88,140.57,255.45,3.17,64.00854997264236,953.125,948.9339192708334,0.408758282281024,0.4044015103795017,0.24578919095210208,63.0464347034664,0.365416905574028,64.5445582524197,0.20104166666666667,138,0.4510886833333334,0.00148356828841442,-1.0699134846770258e-07,35.473,0.017349351572897527,-2.118056130114705e-06,73.15466666666666,1.3599527769579198,4.22999999999999,-0.002243611719729743
S079,15622.0,15651.984375,R,-0.06260416666666681,54.699878238072735,-172.09,362.31,534.4,2.58,57.851677870937685,796.875,803.4749348958334,0.5029038937897468,0.46393241957267395,0.3494027021416533,63.09885101835939,0.4077378604999838,64.5445582524197,0.06979166666666667,61,0.45106738333333335,0.001528954447671857,4.4283345345959095e-07,35.45066666666666,0.012092238098144322,-8.402780057177533e-06,70.58633333333334,0.7648114509835451,2.049999999999997,0.0012738545122218175
S079,15652.0,15681.984375,R,0.09525520833333359,50.674398759357466,-428.65,148.12,576.77,5.58,27.96259958659407,765.625,765.9505208333334,0.5087248748232083,0.4732137007708275,0.37673067072364697,63.118828446330056,0.4353587364710039,64.5445582524197,0.096875,81,0.45299929166666675,0.0016030407272630011,1.001643717893804e-06,35.444666666666656,0.010241527663825828,-6.666668475117396e-06,74.15433333333334,2.0221468514647714,6.209999999999994,0.0036064245894163924
S079,15682.0,15711.984375,R,0.1299843750000002,74.22098444881905,-377.03,557.57,934.6,1.225,34.120049657473714,781.25,775.1302083333334,0.5092620870081425,0.34546761536197407,0.2936225344014545,63.06725182966113,0.3734367248098904,64.5445582524197,0.14270833333333333,97,0.4536610166666667,0.001533082874381626,-2.1185813038685994e-07,35.45,0.014605934866804117,8.333335593895653e-06,78.80566666666667,0.6604881191630587,1.9499999999999886,-0.0006598960123415846
S079,15712.0,15741.984375,R,-0.11469270833333332,56.96989347919278,-141.89,136.09,277.98,0.20500000000000002,47.43480826519962,906.25,897.65625,0.489454770353934,0.23437268517375393,0.22586398546593384,63.02976267385604,0.30286236265804434,64.5445582524197,0.06979166666666667,47,0.45270043333333343,0.0016262284471199704,3.218468755009954e-07,35.45133333333333,0.013597385369580285,-1.6666671187788246e-06,75.35066666666667,1.7521128832228694,5.320000000000007,-0.003137500851101576
S079,15742.0,15771.984375,R,-0.28804166666666725,58.4086567313864,-138.95,152.69,291.64,0.39,100.90187601513672,843.75,843.26171875,0.518143051890327,0.25233071539262825,0.23933637634439664,63.06430199899352,0.29941060948629156,64.5445582524197,0.07708333333333334,48,0.45311673333333335,0.0014174854892457366,5.667670808287456e-07,35.426666666666655,0.016397831835000393,-8.125002204048461e-06,70.85300000000001,0.6408023616269427,2.0800000000000125,-0.0008741321815679749
S079,15772.0,15801.984375,R,-0.2911562500000002,52.99239916229106,-139.67,170.69,310.36,1.685,18.245174100851372,781.25,777.24609375,0.517904263729204,0.25060473733551003,0.2581232344572387,63.0446916048658,0.31817518344764767,64.5445582524197,0.07395833333333333,48,0.45417326666666663,0.001437316201196601,2.540634369746719e-07,35.43266666666667,0.009977753031398737,5.5555570625977275e-06,73.95966666666666,1.9232567575743893,6.189999999999998,0.0034392023218322264
S079,15802.0,15831.984375,R,1.0256041666666664,58.1069189856938,-203.09,280.0,483.09000000000003,1.2650000000000001,92.44903384684332,781.25,796.9482421875,0.489454770353934,0.2515231378797762,0.23870082026926975,63.02695343730987,0.3129410133534927,64.5445582524197,0.07916666666666666,50,0.4547602416666667,0.0013589301551578134,-2.131465421947017e-07,35.43533333333333,0.013597385369582885,-7.77777988763682e-06,79.24233333333332,0.8042167341926896,2.5800000000000125,0.00085059050851522
S079,15832.0,15861.984375,R,0.1542187499999995,66.20832228115648,-152.35,333.7,486.04999999999995,-1.8399999999999999,58.5627608119857,812.5,837.9720052083334,0.5255608363532555,0.26391607133392486,0.303364739102216,63.043097068109006,0.33880239223513864,64.5445582524197,0.08645833333333333,57,0.455315225,0.0017324267394924243,6.518128938294535e-07,35.43333333333333,0.01164283279771714,-8.541668983744005e-06,75.28633333333333,1.1992066358870586,4.180000000000007,-0.0020951741794634827
S079,15862.0,15891.984375,R,-0.7395312500000003,63.16988237737934,-214.79,480.4,695.1899999999999,1.405,33.100807264356206,796.875,800.5696614583334,0.5204154573644877,0.24869232650785364,0.2772555855564,63.07902557651587,0.32447236747619984,64.5445582524197,0.07395833333333333,50,0.4555606083333333,0.0013734125338964634,4.841401052897428e-07,35.419333333333334,0.013399834161495578,-3.3333342375582903e-06,74.33866666666667,0.5985356204010656,1.8300000000000125,0.0009503474800204737
S079,15892.0,15921.984375,R,-0.5095468750000001,49.61286043428419,-121.82,124.92,246.74,0.23,50.705319229607504,812.5,811.7350260416666,0.518205872592051,0.23584032675143204,0.27107160992684814,63.06255847170487,0.31319962133201595,64.5445582524197,0.06770833333333333,47,0.45551800833333334,0.001810634729847678,-7.487725555481098e-07,35.407999999999994,0.013012814197294836,-6.041668305572512e-06,77.16433333333333,0.6046303737730072,2.049999999999997,0.0007942016043298593
S079,15922.0,15951.984375,R,1.0938802083333334,55.6948722327011,-141.99,116.87,258.86,-0.345,47.36304633747586,859.375,868.9453125,0.5020746887222612,0.1978371550810301,0.26190408549696204,63.06683078426331,0.2902237569457542,64.5445582524197,0.05625,37,0.45680931666666663,0.0016280998688826037,1.0085571312275207e-06,35.39133333333333,0.01257864150940831,-7.0833352548117335e-06,74.40533333333333,1.8357028324020432,5.11999999999999,-0.0032535425492465652
S079,15952.0,15981.984375,R,-0.6142239583333333,53.459261773782096,-135.18,150.25,285.43,1.07,40.04054369163847,781.25,781.5185546875,0.5178571214764637,0.23949273649389313,0.2541325113662818,63.06225721710552,0.3004269466746471,64.5445582524197,0.06770833333333333,43,0.4573216083333333,0.0015559205436859148,-1.1697700655843212e-06,35.38266666666666,0.012092238098145523,1.0625002882217513e-05,72.34666666666666,0.3616935473881476,0.980000000000004,0.0005270834763138782
S079,15982.0,16011.984375,R,0.06843749999999975,63.976684886926535,-175.24,338.35,513.59,1.205,62.70552011053651,796.875,803.5807291666666,0.5163599560061437,0.2511237763368229,0.24204128650914083,63.08294384056112,0.30705006422813763,64.5445582524197,0.07291666666666667,45,0.45838879166666663,0.0014355714825800914,2.543032373869441e-07,35.38166666666666,0.013186693629902085,-1.0451391724010482e-05,73.28633333333333,0.19224087899184159,0.75,0.00017121532422290518
S079,16012.0,16041.984375,R,0.03896874999999997,92.2362081485575,-392.43,594.05,986.48,-6.17,80.20069655686422,781.25,802.3356119791666,0.5116312080547429,0.2713756589377332,0.2698298718122629,63.08392645276477,0.3070260067659678,64.5445582524197,0.053125,36,0.4590718416666667,0.0015684826637859957,1.4177738220958408e-08,35.370999999999995,0.015779733838059258,-1.0381947260728652e-05,72.16166666666666,0.5204938893866945,1.6700000000000017,-0.0006516321212109689
S079,16042.0,16071.984375,R,-0.8790677083333338,101.48157439343565,-565.46,581.63,1147.0900000000001,-1.335,136.0369611980784,734.375,826.4729817708334,0.31124574684733536,0.49994682877004254,0.23090251670829018,62.949363030110085,0.3934176365416693,64.31174076325411,0.05,38,0.459285275,0.0013482621960787106,4.4727855015151667e-07,35.32933333333334,0.01547758235499197,-1.9375005255807477e-05,71.56400000000001,0.6533176868874752,2.3200000000000074,-0.00110875030076777
S079,16072.0,16101.984375,R,0.4262395833333336,79.06820816169373,-236.3,234.29,470.59000000000003,-7.075,143.89853060186195,828.125,892.1875,0.3332665948814686,0.48648286876027014,0.256120817708926,63.02249658872802,0.38368657838208414,64.31174076325411,0.057291666666666664,42,0.4599470333333333,0.001629863639149675,1.1367624611443379e-07,35.294666666666664,0.01521694961401768,-1.0625002882216773e-05,69.06133333333334,0.8888334427151627,3.089999999999989,-0.0016011809899036968
S079,16102.0,16131.984375,R,0.9399687500000002,72.36599143488044,-172.7,197.82,370.52,-4.885,58.104180785649646,765.625,770.4264322916666,0.3391916836596807,0.49705731281434956,0.2561547078915396,62.996370095362835,0.3913925668785706,64.31174076325411,0.04479166666666667,38,0.4597976166666667,0.0016641382413696538,-9.3137698876329e-07,35.28,0.015275252316518753,3.263889774275721e-06,69.30533333333332,1.6917933942680132,5.709999999999994,0.003012014705950167
S079,16132.0,16161.984375,R,-0.43639583333333326,81.48738191450758,-548.91,288.17,837.0799999999999,-3.3049999999999997,73.68902864992555,781.25,750.146484375,0.3632878770303548,0.49208580298561755,0.25995584227048174,63.001903114331405,0.39501557656711755,64.5445582524197,0.053125,43,0.4591999333333333,0.0015376803457011297,-6.306121502311676e-08,35.27466666666667,0.009910712498210955,3.6805565539696624e-06,75.839,1.5386170197074178,4.8700000000000045,0.0027230215720002106
S079,16162.0,16191.984375,R,-0.4494322916666666,79.10980559903615,-206.21,206.49,412.70000000000005,-6.035,49.41107029288516,890.625,859.9527994791666,0.3362486446688918,0.49515775930224726,0.25205535313035243,62.99943547407151,0.3863352796463563,64.31174076325411,0.053125,40,0.4604273,0.0015738953777173392,2.776780267138782e-08,35.28,0.014375905768564335,-8.958335763436837e-06,77.57500000000002,0.4799357595901076,1.8699999999999903,-0.0004921181890511605
S079,16192.0,16221.984375,R,-0.33486458333333335,81.36841818993203,-240.73,285.58,526.31,-8.86,98.41470303031382,812.5,811.4013671875,0.3497255248167244,0.4866935994259861,0.2520725720843548,63.0151072867782,0.3905171389725281,64.31174076325411,0.05416666666666667,43,0.46100368333333336,0.0016137446255182052,3.713334340639765e-07,35.266666666666666,0.01468181036369724,-1.5486115311988874e-05,74.70866666666667,0.7059496362268969,2.299999999999997,-0.001258472563604752
S079,16222.0,16251.984375,R,0.47664583333333305,74.69138296461134,-163.13,188.21,351.34000000000003,-8.74,87.34422016718625,828.125,811.7024739583334,0.33641801874057414,0.5040106077339379,0.2581652679109945,62.982612426090995,0.38985935687138723,64.5445582524197,0.04895833333333333,39,0.46120655,0.0013834714058603927,1.0922311990645078e-07,35.251333333333335,0.01543444920372212,-1.6666671187792566e-05,73.52533333333334,0.6808608929550553,2.4399999999999977,0.000724722418815761
S079,16252.0,16281.984375,R,0.7608333333333331,83.79896733423821,-226.64,372.74,599.38,-4.295,56.74949268220736,750.0,778.466796875,0.471215737039133,0.49644570028688256,0.33029868637677356,62.92308162880364,0.42126595112823656,64.5445582524197,0.0875,66,0.46181486666666666,0.0016131427759363266,4.3474534362666673e-07,35.24666666666667,0.015563490039906216,-4.861112429775487e-07,76.48166666666665,0.7746314535886656,2.1500000000000057,0.001340729530362829
S079,16282.0,16311.984375,R,0.6484687499999997,69.43404093131197,-172.73,197.84,370.57,-7.904999999999999,88.04323261274722,796.875,793.6686197916666,0.4297477861748938,0.494022428359505,0.29659343372798325,62.92141225077827,0.41463482038602895,64.31174076325411,0.07395833333333333,60,0.4633624,0.001730048011857865,7.556195626138141e-07,35.24666666666667,0.013743685418727685,-1.3125003560387132e-05,77.929,0.49646315741116814,1.6199999999999903,-0.0004948959675824562
S079,16312.0,16341.984375,R,-1.4796666666666671,78.37731115739994,-278.16,365.59,643.75,-6.859999999999999,75.88349182159276,718.75,747.8352864583334,0.4592746016515851,0.4992083576774332,0.35224817393659635,62.93567947740366,0.4186271820022865,64.31174076325411,0.084375,66,0.46392800833333336,0.0015938437266340057,-2.0672466545265943e-07,35.24266666666667,0.013148721948878228,-6.8750018649640965e-06,77.25999999999999,0.3734791381947146,1.0100000000000051,0.0006452779528206262
S079,16342.0,16371.984375,R,-0.22123958333333296,73.97300591350943,-191.19,184.44,375.63,-4.29,82.85773579269696,875.0,845.7438151041666,0.44999517744329465,0.49465458627432357,0.29943342041911236,62.92328613790286,0.4013767236248658,64.31174076325411,0.071875,62,0.46383195000000005,0.0014259769624717002,-3.5545799572970963e-07,35.230000000000004,0.012649110640673249,1.2500003390837978e-06,75.584,1.1520347216989602,3.769999999999996,-0.0020696533392071783
S079,16372.0,16401.984375,R,1.4815937500000003,74.31746740589743,-233.85,219.51,453.36,-4.95,75.74275897451338,765.625,727.6123046875,0.49000314447687193,0.49975579974123363,0.4040686629460394,62.94160695326153,0.4436467902198484,64.31174076325411,0.09270833333333334,75,0.46317030000000003,0.001659882539016946,-1.3066843822386677e-08,35.232,0.0119443152447794,1.0416669492363338e-06,72.13133333333333,0.8647417083859328,2.5799999999999983,-0.0014981254063925248
S079,16402.0,16431.984375,R,-1.3566614583333332,73.08441013044134,-175.52,287.32,462.84000000000003,-7.235,41.87339045782616,875.0,867.7897135416666,0.4228178763926878,0.4997221450188317,0.2911826340784919,62.95461318131456,0.39661592385176025,64.31174076325411,0.075,61,0.46389600000000003,0.0014648111653042593,-5.23856044882825e-07,35.239999999999995,0.012382783747339168,-1.7361115820612223e-06,71.52733333333332,0.15398989865861087,0.46999999999999886,-2.6041673730922577e-05
S079,16432.0,16461.984375,R,0.3016614583333336,72.89133861869306,-176.02,197.7,373.72,-3.7,90.95188978143881,843.75,836.4908854166666,0.4561489138397922,0.4999121016488799,0.34977516339865466,62.94981969076113,0.4334849870464365,64.31174076325411,0.08333333333333333,67,0.46398137500000003,0.001552368733379739,4.34389657766289e-07,35.226666666666674,0.011642832797714428,-3.819445480535296e-06,70.68566666666668,0.882623677200853,2.549999999999997,-0.0014564934506546916
S079,16462.0,16491.984375,R,1.4148541666666672,75.6634565745715,-150.25,248.1,398.35,-3.91,95.74288474367354,859.375,852.5797526041666,0.44193682775055326,0.5042774929843247,0.36110844016106236,62.97267443656472,0.42766728472826315,64.31174076325411,0.09375,72,0.46499520833333335,0.0014502134089840837,-1.2740843299924967e-06,35.227,0.01615549442140301,1.1423614209964616e-05,67.90033333333332,0.5497422628428302,1.6200000000000045,-0.0009250349731540191
S079,16492.0,16521.984375,R,-1.2036458333333337,71.8239679176601,-192.2,218.37,410.57,-4.41,105.86271292478533,718.75,739.1357421875,0.41882772910430205,0.49495720914932523,0.3204797158384426,62.982230450308116,0.4032441414482266,64.31174076325411,0.06666666666666667,55,0.46509130833333334,0.001425119578584162,3.8326290778616496e-07,35.22533333333333,0.00845905169363133,-4.3750011867941555e-06,67.91233333333334,0.13992100946208524,0.5099999999999909,-5.01041802582947e-05
S079,16522.0,16551.984375,R,0.5758385416666661,92.29187959620833,-436.31,352.45,788.76,1.6150000000000002,28.051651571817963,875.0,889.0869140625,0.44716992016458346,0.4920858029856175,0.3576483278150324,63.005696023859464,0.4120297914218933,64.31174076325411,0.1,67,0.46576369166666665,0.001450205558968757,2.8348119669086214e-07,35.218666666666664,0.009910712498210366,2.0833338984734074e-07,68.42766666666667,1.0452581286723175,3.0,0.0018219796609102803
S079,16552.0,16581.984375,R,-0.7078802083333334,88.20078321964363,-325.52,316.94,642.46,-2.135,45.04273231203234,875.0,905.1513671875,0.38611844892108194,0.48946807153843597,0.282656590696005,63.008956457383675,0.38534333374288376,64.31174076325411,0.06458333333333334,51,0.46645733333333333,0.0014833477864464367,1.0230150344550321e-06,35.216,0.01685229954635139,-1.0416669492375919e-06,69.13166666666666,0.6671385829712526,1.9699999999999989,-0.0011850350436835536
S079,16582.0,16611.984375,R,-0.1312291666666668,84.10716535164616,-406.12,272.66,678.78,-8.135,78.00041904431995,875.0,882.4625651041666,0.4760769954067887,0.49095552383987784,0.40647830123513357,62.98812818210715,0.44590706928543306,64.31174076325411,0.12291666666666666,90,0.4659877833333333,0.0014203402361367087,-3.9551486423471404e-07,35.21399999999999,0.01624807680927067,9.027780226719087e-06,67.55733333333335,0.47883840930132393,1.2999999999999972,-0.0008478474522155633
