participant_id,window_start_time,window_end_time,sleep_stage,BVP_mean,BVP_std,BVP_min,BVP_max,BVP_range,BVP_median,SDNN,median_nni,IBI_mean,x_std,y_std,z_std,mag_mean,mag_std,mag_max,movement_density,burst_count,EDA_mean,EDA_std,EDA_trend,TEMP_mean,TEMP_std,TEMP_slope,HR_mean,HR_std,HR_range,HR_trend
S081,6680.0,6709.984375,W,1.2285989583333328,201.81531895410592,-1232.86,967.4,2200.2599999999998,5.43,0.0,1125.0,1125.0,11.736910881485407,4.217275848411771,10.702445233888142,64.10227198643257,1.2557273499535881,75.69015788066504,0.08229166666666667,38,0.42868713333333336,0.016988897746240697,1.6861738515011528e-05,33.25033333333333,0.024287628309263697,-2.704861844851989e-05,56.406,0.43690273517111383,1.5800000000000054,-0.0003769445466971966
S081,6710.0,6739.984375,W,-0.8076874999999997,83.09718815418191,-504.47,510.78,1015.25,8.125,0.0,1125.0,1125.0,1.3384002032899827,0.7186979147794527,0.765578229863981,64.25160432885755,0.43790162662695414,69.92853494818836,0.14895833333333333,103,0.4346103666666667,0.0014382778529276673,2.7129434442663406e-07,33.282666666666664,0.028975085082800934,3.784723248894112e-05,56.17633333333333,0.5016671096343561,1.6900000000000048,-0.0003387153696602027
S081,6740.0,6769.984375,W,0.23025000000000043,97.40574589079263,-377.65,442.1,819.75,7.85,0.0,1125.0,1125.0,6.773599995647932,3.607235567231505,5.03731733884438,64.35851036067262,2.383506343295109,81.52300288875527,0.053125,17,0.4457526916666667,0.012586202058733354,5.101104465360363e-06,33.285333333333334,0.022910453703251975,-2.770834084970084e-05,54.82933333333334,0.4502660941660554,1.5799999999999983,-0.0007587502058241649
S081,6770.0,6799.984375,W,-0.8592395833333335,46.77104563550438,-99.79,78.56,178.35000000000002,6.545,0.0,1125.0,1125.0,0.5132574010398898,0.48765577995367004,0.4919093680637611,64.10879747942577,0.402598735679065,64.96922348312314,0.115625,89,0.4485275083333334,0.0014431458346025085,1.6876560567643483e-06,33.282000000000004,0.014236104336040912,-2.5000006781681385e-06,51.580000000000005,0.6698109185932004,2.6099999999999994,-0.0002802778538080123
S081,6800.0,6829.984375,W,-1.5463385416666668,49.92711786402562,-241.98,81.53,323.51,4.72,0.0,1125.0,1125.0,1.3586907601059273,1.327522739264337,0.921388760656374,64.12782676379555,0.6614072517194439,74.85318964479737,0.084375,62,0.453095375,0.001719833422469066,1.6888261959706475e-06,33.287333333333336,0.01526069752301245,2.9166674578627466e-06,52.221,0.26657519264427665,0.8400000000000034,-0.00011885419890793156
S081,6830.0,6859.984375,W,1.8042239583333328,83.4174330652138,-397.88,606.18,1004.06,14.07,0.0,1125.0,1125.0,0.4774016405385395,0.3570714214271425,0.4477906799561102,63.97480428178399,0.35858579740269475,65.07687761409578,0.26458333333333334,170,0.45521924999999996,0.0021734355379214674,3.3098906548097356e-06,33.286,0.014047538337136213,-2.63888960473355e-06,52.089666666666666,0.17392495188698118,0.5599999999999952,1.0868058503705207e-05
S081,6860.0,6889.984375,W,0.14960937500000024,63.25183369215733,-204.36,445.74,650.1,4.325,0.0,1125.0,1125.0,3.865192421678023,0.9443907638951979,4.153675058674613,64.00332196911013,0.5789590530334722,70.71774883294857,0.05520833333333333,36,0.46327697500000004,0.004915177898548026,6.4904529325230385e-06,33.28266666666667,0.015040685563570631,8.402780057176202e-06,51.596000000000004,0.2543435996180497,0.730000000000004,-0.000445139009640574
S081,6890.0,6919.984375,W,-0.36633333333333173,233.7051790069714,-1155.89,834.27,1990.16,10.620000000000001,0.0,1125.0,1125.0,8.645624432717236,2.3936219413816984,6.4013222917873245,64.23484677680875,0.9784560422260632,71.9444229944198,0.065625,28,0.46492070833333327,0.005570161189163548,-3.936519514029814e-06,33.27333333333333,0.024267032964268867,1.7291671357333107e-05,52.705666666666666,0.9494864693904568,2.6400000000000006,0.0016328823873921403
S081,6920.0,6949.984375,W,0.5471093750000013,212.66256191790796,-1157.06,1049.68,2206.74,-0.695,0.0,1125.0,1125.0,16.40921983702218,4.47919379836744,7.105409761109058,63.951936999424134,2.374509567963807,97.65756499114649,0.017708333333333333,7,0.45985105833333334,0.0033244727609447935,-1.0237418141660698e-06,33.305,0.02109502310972827,2.9826396979816036e-05,54.093666666666664,0.7103965246411482,2.450000000000003,0.0011406600316460577
S081,6950.0,6979.984375,W,1.2363958333333323,116.71209241891626,-363.35,273.42,636.77,12.515,0.0,1125.0,1125.0,0.573594296229196,0.08507936450096985,0.45138675213169466,64.09439886850768,0.2935279963457008,64.90762667052309,0.03854166666666667,32,0.46422699999999995,0.0016111215762112166,2.2908244061481024e-06,33.35166666666667,0.018089284734952117,1.3368059181873969e-05,55.37533333333333,1.0549462334903867,3.1299999999999955,-0.0011861808773277105
S081,6980.0,7009.984375,W,-1.6793802083333322,166.46248245782624,-692.01,541.13,1233.1399999999999,13.17,0.0,1125.0,1125.0,0.8539023981436963,0.2693791086306929,0.6098689237587588,64.02234962901757,0.38078600267600504,66.27216610312357,0.06354166666666666,43,0.46971265833333326,0.002349965189443716,3.5902377360670994e-06,33.371,0.016401219466855934,-4.131945565305024e-06,61.13666666666666,1.9219110859304138,5.939999999999998,0.0030735425004184296
S081,7010.0,7039.984375,W,-0.5655000000000003,135.729499422181,-413.08,387.3,800.38,16.515,0.0,1125.0,1125.0,0.5961537599944795,0.04564354645876384,0.37412948729535994,63.98540215001669,0.2633502749330482,64.69157595854347,0.13854166666666667,98,0.4748142083333333,0.0018886543353043416,2.7361146745102726e-06,33.379999999999995,0.013416407864999248,-1.180555875801943e-06,60.913666666666664,0.8428977135783173,4.25,-0.0011279516948653689
S081,7040.0,7069.984375,W,-1.2757812499999988,157.77638212406976,-614.02,621.85,1235.87,20.064999999999998,0.0,1125.0,1125.0,7.581372729037745,0.9324720495885594,1.4181024433836067,64.03980594398959,1.119023230093707,83.34266614405853,0.011458333333333333,3,0.4804066083333333,0.002010121029920973,1.771959465049768e-06,33.36600000000001,0.018184242262646016,-9.444447006414534e-06,53.63533333333333,2.1213482086216353,6.630000000000003,-0.003665348216511559
S081,7070.0,7099.984375,W,2.4893750000000012,171.6130514684034,-1344.62,1051.82,2396.4399999999996,8.03,0.0,1125.0,1125.0,5.9962074783369435,1.3804437692278524,5.574543668263349,64.26827498965261,1.8982658369486654,93.04837451562494,0.034375,8,0.47553985000000004,0.0022898312807206264,-2.3110609567765226e-06,33.36133333333334,0.017650936393163452,-2.340278412618755e-05,53.355000000000004,1.1274329248341113,3.5500000000000043,0.001969479700922227
S081,7100.0,7129.984375,W,0.06880208333333317,52.97833111599335,-124.31,90.14,214.45,10.295,0.0,1125.0,1125.0,0.3944053188733077,0.1592592172022985,0.48765577995367004,64.19265711365537,0.29165794235112047,64.96922348312314,0.3375,187,0.47664988333333347,0.0010279243745150873,2.626493768037626e-07,33.342,0.014696938456698467,-1.0208336102520735e-05,54.386999999999986,0.4022118015838588,1.6600000000000037,-0.0006155904447673733
S081,7130.0,7159.984375,W,0.07598437499999981,115.92879587258942,-956.94,526.67,1483.6100000000001,11.719999999999999,0.0,1125.0,1125.0,14.517871529601026,2.6962671920329657,3.5638689803884485,64.06692320882699,1.2930811604833792,81.32035415564789,0.026041666666666668,8,0.47992634166666664,0.002478732470087054,2.5922878125780686e-06,33.32366666666667,0.0116856987619714,-2.604167373091933e-06,51.15833333333333,1.1349716100218343,3.8999999999999986,-0.001973854702109022
S081,7160.0,7189.984375,W,0.22772395833333334,55.41746406140142,-142.8,96.17,238.97000000000003,9.65,0.0,1125.0,1125.0,0.4594493987372276,0.49073004006502613,0.2438034129512273,64.17337988320348,0.3794483268117243,65.03076195155643,0.13333333333333333,91,0.482978725,0.0012932003193788914,1.5947285141950165e-06,33.30966666666667,0.018526257642120587,-1.774306036867e-05,52.160666666666664,0.6150280933059527,2.469999999999999,0.0009490974796813903
S081,7190.0,7219.984375,W,-2.2676666666666665,69.16347532125529,-471.49,213.85,685.34,8.190000000000001,0.0,1125.0,1125.0,0.6386011391553851,0.4749999999999999,0.47136308693216766,64.21421631098906,0.36805601770941454,65.03076195155643,0.15833333333333333,108,0.48749313333333333,0.0019125194680200072,2.5806955785306902e-06,33.28333333333333,0.01577621275493127,-1.3194448023666446e-05,53.06466666666667,0.19795173373549693,0.8299999999999983,9.104169136330585e-05
S081,7220.0,7249.984375,W,1.5417343749999999,89.82023199182275,-512.71,416.6,929.3100000000001,8.2,0.0,1125.0,1125.0,1.0395624580402405,0.7504447466058599,0.6140490262163293,64.23495100096413,0.45669454095512496,67.68308503607086,0.11354166666666667,77,0.4939501,0.001956144159650135,1.988248803235895e-06,33.26,0.015275252316521078,-1.4097226046341261e-05,52.00833333333333,0.6082164271229624,1.9500000000000028,0.0009111460804975257
S081,7250.0,7279.984375,W,-0.7125833333333339,61.742641860803054,-161.78,127.96,289.74,5.265,0.0,1125.0,1125.0,0.4985395337048674,0.31598061649411346,0.49895615865914406,64.23115913914548,0.351881573499751,64.89992295835181,0.0875,71,0.49875285833333344,0.0018905167472406013,2.578174527499584e-06,33.23733333333334,0.012092238098145521,-3.2638897742757695e-06,53.09733333333334,0.15196344589699454,0.4099999999999966,-0.00019861116498783704
S081,7280.0,7309.984375,W,1.2954114583333336,106.86267367337562,-600.2,527.8,1128.0,11.265,0.0,1125.0,1125.0,4.538472572345299,0.9057589665885486,1.4285314277013843,64.17659651839259,1.0655011256565816,87.46999485537883,0.020833333333333332,8,0.5026696416666667,0.0021620214799882545,2.7978651252889453e-06,33.232,0.017397317800933208,-1.2430558927560418e-05,52.18066666666667,0.7882213451111867,2.1999999999999957,-0.0012456947823607809
S081,7310.0,7339.984375,W,-0.42149479166666687,200.02648191631448,-859.22,736.49,1595.71,5.695,0.0,1125.0,1125.0,28.387418966076428,14.662256528006035,15.21266487260012,64.3734153240134,6.841651203382414,149.2581656057718,0.07604166666666666,37,0.4849531,0.030126529151895343,-2.92522787685218e-05,33.218333333333334,0.02050745122036231,-1.4548615057675047e-05,59.832333333333324,6.681998545012978,20.28,0.0119262185129716
S081,7340.0,7369.984375,W,1.401098958333333,110.75063921885979,-869.33,877.72,1747.0500000000002,5.6850000000000005,0.0,1125.0,1125.0,16.81864403301809,6.8246438653521615,4.256334000435573,64.01756480430977,2.611541025141771,110.83771921146699,0.030208333333333334,13,0.45924280833333336,0.0024499941030399573,3.3753589885413726e-07,33.19933333333333,0.016519348924485196,-8.194446667330811e-06,78.2816666666667,1.8456292212202914,6.849999999999994,0.0019300352457777903
S081,7370.0,7399.984375,W,-6.462812500000001,185.67725287614397,-799.18,609.93,1409.11,-25.924999999999997,0.0,1125.0,1125.0,7.554165230281166,1.4135366770975557,4.089699411453324,63.97416546617639,1.371171484394899,93.11283477587824,0.030208333333333334,12,0.4654542416666666,0.0025546438270850746,8.604058323583554e-07,33.144999999999996,0.024999999999998867,-3.2881953364243133e-05,82.16666666666667,0.9440915680636545,3.9099999999999966,0.00045166678918912614
S081,7400.0,7429.984375,W,5.348328124999999,156.31904338319143,-586.66,642.85,1229.51,-1.63,0.0,1125.0,1125.0,20.877666345641472,10.822658201918584,15.506835270427253,64.2621549534542,3.361457878893544,110.09995458672996,0.06666666666666667,26,0.4580368416666667,0.008316119027723442,-1.0939120805968095e-05,33.11533333333334,0.01783878421367958,-2.638889604733896e-06,87.0,5.786253825519007,17.08999999999999,0.010154933310257519
S081,7430.0,7459.984375,W,-0.3032499999999987,217.5886865964083,-1184.23,785.57,1969.8000000000002,12.6,0.0,1125.0,1125.0,21.104683251945065,3.817421118118298,4.084948660088099,63.728650057506044,1.6961338924943226,82.76472678623425,0.026041666666666668,11,0.4451123083333333,0.004512449039039725,-6.974483011741262e-06,33.138999999999996,0.01795364401265919,1.5034726300650695e-05,96.58366666666667,1.1318259092673606,3.769999999999996,-0.0018539935584834955
S081,7460.0,7489.984375,W,2.0931822916666665,50.06765793474802,-187.72,364.72,552.44,8.114999999999998,0.0,1125.0,1125.0,7.706933361045573,2.710639843168952,9.569319237005432,63.34307335981205,2.7467509291526673,106.07544484940895,0.023958333333333335,9,0.43931697499999994,0.004048174754261685,2.539021305073062e-06,33.18899999999999,0.01868154169227048,6.076390537215438e-06,83.92133333333335,6.482778073909022,19.060000000000002,-0.01164590593693195
S081,7490.0,7519.984375,W,-1.9415677083333345,234.47445627578188,-1060.45,894.19,1954.64,-1.435,0.0,1125.0,1125.0,18.035651151444384,5.738424338517402,10.578456881795189,63.824321962609126,5.651022121104297,146.6594695203825,0.051041666666666666,18,0.43605125,0.008059290560433965,-4.68739927501066e-06,33.20866666666666,0.01995550606279468,8.333335593896591e-06,73.54933333333334,0.7661981176925176,2.5900000000000034,-0.0012805559029285775
S081,7520.0,7549.984375,W,-2.593619791666667,289.10034574551855,-1427.27,1044.28,2471.55,1.54,0.0,1125.0,1125.0,27.044240295481075,47.50912174841328,35.70953852254402,66.27920867827254,14.004829416383558,157.4229970493511,0.103125,41,0.45549670833333333,0.02579639005765336,2.2030967998852e-05,33.227999999999994,0.026381811916546156,2.31944507363427e-05,78.34766666666665,4.7663477865365875,13.090000000000003,0.008473509243030933
S081,7550.0,7579.984375,W,2.523473958333334,401.62226039158514,-2904.97,2529.22,5434.19,1.515,0.0,1125.0,1125.0,12.21956092790708,8.052120795514407,22.93094817777052,64.7664880026314,5.479027298557326,109.54907576059234,0.08020833333333334,28,0.504068275,0.05826778085885923,4.907038288584605e-05,33.21333333333334,0.08133606552787918,-0.00010465280616666625,80.28833333333334,1.8178266938541987,5.530000000000001,-0.0026644104449898105
S081,7580.0,7609.984375,W,-0.547875000000001,315.299680391801,-1598.9,1522.26,3121.16,0.7949999999999999,0.0,1125.0,1125.0,20.408803731435704,42.77671659488242,33.521191197980976,65.59668245440191,8.878593224324838,106.63489110042735,0.11458333333333333,37,0.3548110833333334,0.027759497503432144,-3.8868912019561626e-05,33.284000000000006,0.09068627239003706,0.0001172222540207943,79.47333333333333,0.6762757491503659,1.8799999999999955,-0.0011225003044976942
S081,7610.0,7639.984375,W,-2.6425468750000007,192.10807918065856,-771.72,615.33,1387.0500000000002,11.71,0.0,1125.0,1125.0,25.753370005171437,34.11336987345671,24.947232310550948,65.38349193809405,8.341164405996127,111.40466776576285,0.12395833333333334,52,0.34009359166666664,0.02916054815314001,2.8015968320303906e-05,33.351666666666674,0.021147629234081238,2.489584008676112e-05,79.961,0.9678476119720484,2.769999999999996,0.0016917018477923822
S081,7640.0,7669.984375,W,4.731052083333333,294.707138821989,-1109.93,1300.18,2410.11,13.245000000000001,0.0,1125.0,1125.0,26.609944556604315,36.948167391194225,25.74047524759833,66.06969544960165,10.980784801805015,137.93476719087178,0.11666666666666667,48,0.32645392500000003,0.05843569964701408,-5.565686210309847e-05,33.39966666666666,0.0779094916482505,-3.6354176528366616e-05,81.90466666666667,0.3314084421911364,1.1599999999999966,0.00021680561436784266
S081,7670.0,7699.984375,W,-1.7151197916666656,130.6832555531305,-753.46,767.44,1520.9,0.96,0.0,1125.0,1125.0,16.703004137646083,14.410388806536607,12.10599007350172,64.32845671117042,5.423297627742116,115.54220008291342,0.06979166666666667,21,0.28590868333333325,0.008998377078658252,6.294142766423278e-06,33.212666666666664,0.019136933459209398,-1.8402782769851617e-05,81.80333333333334,1.2531276426960216,4.400000000000006,0.0015793754284330042
S081,7700.0,7729.984375,W,-0.06808854166666763,226.70980415556045,-905.46,789.73,1695.19,6.61,0.0,1125.0,1125.0,24.764437055280112,24.487445763084395,14.788912742462397,64.4570676003616,7.135590003338836,132.9661611087573,0.06145833333333333,16,0.2828349666666667,0.021437421024512775,-6.630992250160652e-06,33.22333333333333,0.02005547860865481,1.847222723313411e-05,86.19399999999999,0.6949465207241969,2.4200000000000017,0.001228541999930013
S081,7730.0,7759.984375,W,0.11078645833333335,90.77871509516643,-918.48,529.66,1448.1399999999999,7.630000000000001,0.0,1125.0,1125.0,9.094159259595626,16.72007263719436,12.014023742820536,64.15127273077947,2.8032047768849524,95.3205119583398,0.052083333333333336,16,0.2902951916666667,0.033993596451463194,-4.085918426084641e-06,33.25666666666667,0.016599866130653288,1.2361114464278858e-05,81.79833333333333,5.133971875869816,15.189999999999998,-0.008933301034424107
S081,7760.0,7789.984375,W,-0.2202968749999992,234.1408249333823,-850.58,1759.2,2609.78,-5.720000000000001,0.0,1125.0,1125.0,16.651363286696846,10.674388836834199,7.109586077452634,64.48515557749906,3.831356610794096,110.12719918348964,0.03854166666666667,14,0.12973629166666667,0.030896788874518938,-4.544670091327606e-05,33.486666666666665,0.078372330718323,0.0001011111385392628,69.91299999999998,1.3536177451555524,3.5999999999999943,-0.0022494797768771104
S081,7790.0,7819.984375,W,1.4132395833333329,184.50293520820367,-762.29,1202.61,1964.8999999999999,-3.425,0.0,1125.0,1125.0,13.872822651981583,5.325694297297198,6.899878518329749,64.30181016634275,2.905834819511757,94.42457307290302,0.04791666666666667,16,0.2033364583333333,0.07818896874217572,0.0001216258496163871,33.48966666666666,0.03060319518539805,-4.600695692463041e-05,69.53466666666667,2.911006393366773,7.950000000000003,0.004700070719420225
S081,7820.0,7849.984375,W,-0.9984635416666668,127.09577164888184,-664.56,530.09,1194.65,9.98,0.0,1125.0,1125.0,7.775673202366468,1.7558801879328212,2.174025963250873,64.19513382922464,0.924437296200348,73.59347797189639,0.017708333333333333,5,0.2853751666666666,0.0013190988485410195,1.6176666714590678e-06,33.475,0.024731895735399693,-3.142361963531446e-05,69.065,1.9244631285980336,7.719999999999999,-0.0032980911724422666
S081,7850.0,7879.984375,W,0.1058645833333344,159.8401976326747,-952.25,912.79,1865.04,4.17,0.0,1125.0,1125.0,9.137472390804163,5.198822983778797,10.127458334961881,64.27125215633306,2.544377053501706,88.14760348415605,0.0375,8,0.28911061666666665,0.006129818699308234,4.277054979669855e-06,33.376,0.03843609414773048,-6.291668373390674e-05,62.68333333333332,2.309088324185302,6.699999999999996,-0.003799445475109991
S081,7880.0,7909.984375,W,-0.2669062499999998,41.161011228157946,-88.38,68.25,156.63,8.295,0.0,1125.0,1125.0,0.33579817847431315,0.37727176461405115,0.2847982198709582,64.35683703091742,0.2951452341976557,65.00769185258002,0.0875,66,0.2977874333333333,0.002180928467164586,3.4802973850633e-06,33.31066666666667,0.015902480589168037,-1.548611531198865e-05,58.803,1.972540071413844,5.539999999999999,-0.003480174555168878
S081,7910.0,7939.984375,W,-0.3626562500000004,47.71871306510864,-216.21,185.93,402.14,7.055,0.0,1125.0,1125.0,6.931507359213675,5.498478324853967,6.934086685333709,64.52126407563291,3.5616918380327096,119.36917525056458,0.034375,7,0.30439390833333324,0.00704028048209709,5.788484860157567e-06,33.28933333333334,0.015040685563570915,3.819445480535568e-06,58.37166666666666,1.2256837094273367,4.1299999999999955,-0.0009122571919100446
S081,7940.0,7969.984375,W,0.8303958333333336,151.43980486363216,-988.01,515.4,1503.4099999999999,0.785,0.0,1125.0,1125.0,8.858545424612924,5.291988179209104,6.098451178031462,64.78279315066793,3.9193859975479444,124.26584406022437,0.021875,9,0.3336261416666667,0.0037118525906790194,6.38187260792985e-06,33.32033333333333,0.02316366887078779,2.045139443668331e-05,57.60133333333333,1.4374253217317257,4.359999999999999,0.0025803479221863934
S081,7970.0,7999.984375,W,-2.396499999999999,102.2475793766043,-358.61,428.54,787.1500000000001,-2.355,0.0,1125.0,1125.0,0.42663975948685323,0.2745241305675858,0.09681898021852718,64.68007553174964,0.11777467398408964,66.12110101926616,0.14583333333333334,71,0.3447256083333333,0.0028172735380619126,4.761621300352999e-06,33.35733333333334,0.022793761329702872,1.7291671357330515e-05,57.695,1.1280950019095606,4.209999999999994,0.0008884377410041608
S081,8000.0,8029.984375,W,1.8082083333333336,123.79963240562992,-356.9,307.86,664.76,-0.11,0.0,1125.0,1125.0,0.42029668753816696,0.232399078305449,0.0,64.82661419165568,0.12369631991848097,65.21502894272147,0.057291666666666664,49,0.3534131083333333,0.002618709124727404,4.316385068463835e-06,33.353666666666676,0.015380362660076407,-1.0729169577138568e-05,60.339333333333336,0.6233668440190113,1.75,-0.0010382641705360706
S081,8030.0,8059.984375,W,0.47680208333333335,179.98694837051843,-978.89,714.24,1693.13,-0.345,0.0,1125.0,1125.0,3.0845505409914353,1.3552459641201258,0.7744958037329833,64.92353463564646,0.7714059117504897,71.42828571371429,0.015625,6,0.35838660000000006,0.0019090877769238391,-9.126595357691829e-07,33.32699999999999,0.012423096769056329,-1.3576392571721357e-05,61.41,0.770696654549203,2.5,0.0007674307637344748
S081,8060.0,8089.984375,W,-0.29914062499999994,32.601943981868494,-64.17,59.81,123.98,1.705,0.0,1125.0,1125.0,0.18915645622223828,0.17116012950028855,0.4222940305804581,64.81048310445806,0.38219292696468593,65.81793068761733,0.22708333333333333,147,0.35752210833333337,0.0015421080636357954,2.1764769358932578e-06,33.28933333333334,0.013148721948876965,-3.402778700840294e-06,56.183666666666674,1.493960024751518,5.920000000000002,-0.002563090973060702
S081,8090.0,8119.984375,W,-0.03743750000000009,32.33784195954115,-65.72,59.81,125.53,1.4,0.0,1125.0,1125.0,0.47826001180204153,0.1561249499599599,0.1821904480893551,64.74611481411795,0.21887929029807576,65.81793068761733,0.034375,30,0.3608198,0.001370632600906118,1.3862369211797194e-06,33.292666666666676,0.009977753031397661,4.305556723512548e-06,50.81833333333334,1.6368732048906203,5.230000000000004,-0.002931702184164005
S081,8120.0,8149.984375,W,0.6411718750000001,232.6496078260083,-1007.12,806.46,1813.58,16.575,0.0,1125.0,1125.0,12.850572836345554,21.513463540263896,23.00534018621184,64.45135344948473,3.0443111201486777,95.89056262218926,0.030208333333333334,8,0.2847668,0.03051333431922291,-2.831407972929681e-05,33.174,0.09527504045306613,-8.958335763437483e-05,56.04633333333333,6.373313362939423,18.669999999999995,0.011349760023263895
S081,8150.0,8179.984375,W,-0.7101041666666663,200.9028534031062,-1019.15,532.14,1551.29,4.25,0.0,1125.0,1125.0,4.716703474532469,6.334448144071475,17.15655535045003,64.0482471379219,1.1329152188107499,74.63913182774837,0.06458333333333334,26,0.26126564999999996,0.003744818145673656,9.320944368745756e-07,33.427666666666674,0.1205455192955019,0.00021170144631658147,75.175,4.164991196469287,14.510000000000005,0.0075035089799015235
S081,8180.0,8209.984375,W,-0.22120312499999992,140.1117304111719,-823.15,367.55,1190.7,4.38,0.0,1125.0,1125.0,0.740002082157356,0.5899467004526765,0.865762248445457,63.79578889672167,0.5509710018915875,66.70082458260917,0.18854166666666666,104,0.2568686416666666,0.0022227947753366457,-1.9861183773107607e-06,33.68733333333333,0.0289750850828009,3.5277787347490585e-05,81.26933333333334,2.839756953606339,8.850000000000009,-0.00479305685575544
S081,8210.0,8239.984375,W,-4.513062500000001,106.13079046676444,-732.29,331.71,1064.0,-0.525,0.0,1125.0,1125.0,4.935903288765053,7.426262518925655,3.105828519079982,63.78812443364867,1.5069885768269022,88.13625814612281,0.020833333333333332,6,0.24724186666666667,0.003443858223788484,-5.0533772388718675e-06,33.72033333333333,0.018162843634432827,1.5798615396758353e-05,73.94866666666667,1.625088168548265,6.1299999999999955,-0.0028418063264448574
S081,8240.0,8269.984375,W,4.091255208333333,158.9588968079926,-538.82,596.77,1135.5900000000001,0.935,0.0,1125.0,1125.0,1.278501455698124,1.1263398656957655,0.8231612242092473,63.71057627772713,0.486239337412462,66.1362230551458,0.13541666666666666,76,0.24258866666666673,0.0016248604521277787,-1.1878614333391508e-06,33.75066666666667,0.042499673201358515,6.805557401681315e-05,65.68833333333333,2.106303370573406,7.030000000000001,-0.0037151746189167264
S081,8270.0,8299.984375,W,0.3724166666666665,179.4604085138318,-602.81,892.93,1495.7399999999998,2.65,0.0,1125.0,1125.0,12.801847027924874,27.881563050871492,44.42540544897206,64.71677736195211,7.793505493904794,159.63082409108839,0.046875,17,0.26569485833333334,0.03616554951499558,5.064642237587412e-05,33.970666666666666,0.13829758574256476,0.0002235417273062401,62.24366666666666,0.6510017067736631,2.229999999999997,0.000692048798841363
S081,8300.0,8329.984375,W,0.64246875,119.54621324665038,-615.66,413.78,1029.44,5.84,0.0,1125.0,1125.0,12.9105048726883,19.678018853488883,20.814924783673852,65.22714051612137,2.7247581097824756,95.50392662084633,0.029166666666666667,9,0.2812341916666667,0.04770311653485822,-4.84445211709313e-05,34.18666666666666,0.035527766918597874,-5.055556926963194e-05,62.54366666666667,0.815133867669736,2.3400000000000034,-0.001269687844424871
S081,8330.0,8359.984375,W,-0.6986041666666678,189.28295758992448,-991.65,1196.59,2188.24,0.92,0.0,1125.0,1125.0,16.110352951509853,28.231940957617045,22.506404952566033,64.94706234337437,7.118851824499318,145.7703673590761,0.06458333333333334,33,0.22585387499999998,0.0894567704131035,-0.00010510558471831183,33.852666666666664,0.330332492430817,-0.0004851390204912712,65.01266666666666,2.2732897356523267,6.210000000000001,0.004045070541740057
S081,8360.0,8389.984375,W,0.45032812499999975,36.480010126075676,-94.54,62.48,157.02,8.190000000000001,0.0,1125.0,1125.0,0.3360307525609325,0.3,0.3140776150315219,64.20591191760009,0.2658317062427901,64.8459713474939,0.022916666666666665,21,0.15530785833333335,0.001783165052632688,7.168077031270875e-07,33.41799999999999,0.013266499161423173,-3.7500010172529485e-06,67.11333333333333,0.8607335372937563,3.1799999999999926,-0.0013259031374520222
S081,8390.0,8419.984375,W,0.005010416666666847,108.14097179530627,-732.1,468.26,1200.3600000000001,6.535,0.0,1125.0,1125.0,28.63212882407216,22.982996337721552,14.614710144377366,64.76293733539357,7.299862283533147,130.61010680647956,0.05,18,0.15206338333333339,0.006979542786103939,-3.3160811946834815e-06,33.458666666666666,0.05352465683111859,6.944446328246242e-05,59.53066666666667,2.2939804319614896,6.759999999999998,-0.0037816676925096823
S081,8420.0,8449.984375,W,0.08954687499999994,144.82232173120823,-634.21,555.17,1189.38,6.98,0.0,1125.0,1125.0,35.883315295876216,21.428742719532814,15.45834031755233,64.57809489748232,7.014558746761441,149.70971912337555,0.06458333333333334,17,0.14958731666666666,0.012439523341607141,-1.4775644633150128e-05,33.536,0.047930505248050106,-3.868056604833058e-05,59.67133333333334,3.3690737929321495,10.43,0.005320279220995882
S081,8450.0,8479.984375,W,0.029552083333332035,164.4546725377144,-758.61,665.81,1424.42,-10.225,0.0,1125.0,1125.0,14.828524501409063,4.3427670500548,8.871122000939653,64.20281279351755,4.1228373402153675,137.9202668210876,0.042708333333333334,16,0.167645425,0.009355680324151116,1.4527333150860767e-05,33.36366666666667,0.031987844913687655,-2.0798616753096927e-05,73.03,2.227430507707629,8.299999999999997,0.0013431948088093542
S081,8480.0,8509.984375,W,-0.019885416666667054,94.52255500886302,-287.77,521.82,809.59,-15.465,0.0,1125.0,1125.0,0.5142236850475567,0.18252663428174593,0.48835284197380163,63.974599975532676,0.29321431964161876,65.14598989960932,0.21354166666666666,142,0.18352618333333334,0.0034444513641104326,5.487831349780638e-06,33.36566666666667,0.01856220772309962,1.4965281837369557e-05,81.06333333333333,3.234343141281637,11.38000000000001,0.0026781951709513824
S081,8510.0,8539.984375,W,0.2361718749999999,247.10024254798404,-1010.01,840.78,1850.79,-2.04,0.0,1125.0,1125.0,20.355852215052106,4.955720162235645,6.731455686530382,63.83052998510116,1.7296146452614827,84.74078120952154,0.05625,21,0.17039891666666668,0.012572281071589819,-8.57123843620834e-06,33.40866666666667,0.03303869784897115,4.7916679664899624e-05,72.35733333333333,2.7439253310216407,9.069999999999993,-0.00452361233821949
S081,8540.0,8569.984375,W,1.1420312499999992,147.7186719611918,-233.83,484.16,717.99,-26.485,0.0,1125.0,1125.0,0.34397088862609027,0.06441510347391795,0.341253561234979,63.84057961650203,0.21207914183079768,64.57553716385176,0.08541666666666667,62,0.17750687499999998,0.0026261344994830374,3.7655398669541803e-06,33.458,0.013266499161420532,7.777779887635363e-06,63.151666666666664,3.131110647819538,9.11,-0.005358994509275853
S081,8570.0,8599.984375,W,-0.9067760416666677,141.84888515626355,-247.13,443.92,691.05,-22.66,0.0,1125.0,1125.0,0.34797124072974767,0.09090593428863095,0.3487079325484613,63.81410993976704,0.21408159346433928,64.57553716385176,0.0625,53,0.18436936666666665,0.0025628363842083654,3.4609518937043937e-06,33.46866666666667,0.013597385369580283,1.0416669492369012e-05,57.45366666666667,1.1296768957931682,4.1299999999999955,-0.0020210074926778135
S081,8600.0,8629.984375,W,-2.1536822916666676,181.55944135413654,-474.08,1065.67,1539.75,-25.045,0.0,1125.0,1125.0,6.18332763013551,6.717327045699717,4.016994605388738,63.82766425432875,2.188298616890244,103.4456378974,0.034375,11,0.178990375,0.00844500487671312,-9.668087475067137e-06,33.472666666666676,0.015902480589168842,1.2222225537713274e-05,56.89633333333333,4.3550656201205005,14.549999999999997,0.006784481007074927
S081,8630.0,8659.984375,W,1.9773697916666662,108.94193435471296,-303.17,352.72,655.8900000000001,11.04,0.0,1125.0,1125.0,0.44958386430305375,0.23632521950693286,0.47898434031175685,63.5400069599023,0.33512266744324065,64.64518543557594,0.33541666666666664,202,0.17968409999999999,0.0018558004355713148,1.9451316040396103e-06,33.482000000000006,0.011944315244780153,8.263891130613947e-06,77.99466666666666,4.529495728616549,16.08999999999999,0.007911807701770754
S081,8660.0,8689.984375,W,-0.5971927083333334,116.7596079767294,-227.68,309.2,536.88,-21.78,0.0,1125.0,1125.0,0.46468608729143396,0.3222624421139116,0.4030913530316532,63.50781931576287,0.3285230936834987,64.64518543557594,0.28020833333333334,180,0.18529795,0.002452214005920636,3.3510425756951427e-06,33.461333333333336,0.012310790208411578,-8.819446836871647e-06,82.21533333333333,3.791011943473083,11.86,-0.006238057247736883
S081,8690.0,8719.984375,W,-0.8795104166666675,166.03265400143525,-908.35,622.1,1530.45,-21.619999999999997,0.0,1125.0,1125.0,6.075262554340073,1.2844518765854518,0.9724587385919718,63.80487458969682,0.5594448972526215,69.2820323027551,0.09375,66,0.18824349166666668,0.0030641720115876696,1.260954986153156e-06,33.455999999999996,0.01171893055416335,-4.236112260229016e-06,65.701,3.5155827871539773,12.75,-0.006146008611655981
S081,8720.0,8749.984375,W,0.28654687500000076,92.15601590285,-240.89,208.47,449.36,-6.425,0.0,1125.0,1125.0,0.3884606707355757,0.37080407187923675,0.2919474095287636,64.06753915159409,0.27840688262371577,65.06150935845248,0.13645833333333332,92,0.193334375,0.0021573629506973675,2.5414779029616672e-06,33.42466666666666,0.017074997966489158,-1.9583338645656153e-05,60.38866666666667,0.5560739359313859,1.8000000000000043,0.0003547917629100932
S081,8750.0,8779.984375,W,1.0770885416666667,79.13862787666017,-208.95,163.87,372.82,2.475,0.0,1125.0,1125.0,0.38621960281324696,0.3388075878684275,0.2897556441785618,64.09179068846623,0.2635330703491119,64.77653896280658,0.15625,99,0.19998344999999998,0.0021891249349530774,3.005973037644589e-06,33.38733333333333,0.01965253729731047,-2.5694451414509652e-05,59.31033333333333,2.175327536002082,7.700000000000003,0.0023732992549097367
S081,8780.0,8809.984375,W,0.12384895833333368,82.3720812629605,-297.44,167.92,465.36,-3.64,0.0,1125.0,1125.0,0.3705625767180071,0.27794938275700487,0.2752524094152291,64.10896529467638,0.23036676405666476,64.77653896280658,0.14270833333333333,88,0.2054158,0.0019421158805110845,2.0494089760766567e-06,33.37233333333334,0.014761059883655721,4.8958346614121375e-06,66.36933333333333,1.2368641351777054,4.329999999999998,-0.0017705560358496227
S081,8810.0,8839.984375,W,-0.4816874999999998,97.07900879012504,-368.85,374.75,743.6,10.645,0.0,1125.0,1125.0,0.5571027717251897,0.3342029671679905,0.3001663312046987,64.07961727706446,0.2592931897991089,65.06150935845248,0.16145833333333334,105,0.21007975833333334,0.0022346555625563152,3.056491931557055e-06,33.348000000000006,0.015999999999998415,-1.3472225876794507e-05,69.60066666666665,3.9249288174720096,9.940000000000005,0.006707710152916163
S081,8840.0,8869.984375,W,0.2775989583333332,146.26467000895585,-780.24,791.84,1572.08,-1.17,0.0,1125.0,1125.0,9.623624540969766,5.315731758023903,6.673361222052947,64.19190915697126,1.2989766933307865,75.31932023060219,0.0625,26,0.221264625,0.011454791707739966,1.577904095568602e-05,33.33833333333334,0.010671873729054733,-3.784723248892741e-06,79.143,5.277069357133749,16.28,0.00936010670575811
S081,8870.0,8899.984375,W,1.4603489583333338,217.57522967411253,-922.1,897.71,1819.81,-17.485,0.0,1125.0,1125.0,0.8356608122052605,0.5965722399676336,0.5456225738141298,64.19772534484846,0.4056606308277303,66.40783086353596,0.11666666666666667,80,0.25580128333333335,0.003412395661856279,4.670109339764906e-06,33.312666666666665,0.020319667538836874,-9.513891469697131e-06,93.06366666666668,1.0571896182279164,4.3799999999999955,0.0003271875887553143
S081,8900.0,8929.984375,N1,1.6422760416666677,166.462491095582,-494.84,530.21,1025.05,-10.42,0.0,1125.0,1125.0,0.6838888747856302,0.37336303592779807,0.48019703529731766,64.33508100109769,0.33766736423031585,66.43794096749237,0.14270833333333333,96,0.26122294166666665,0.003201768827007538,4.69120635069617e-06,33.317,0.013453624047072864,-2.9513896895047838e-06,93.70233333333333,0.5958785297543642,1.6899999999999977,0.0010501044515257303
S081,8930.0,8959.984375,W,-3.7973541666666657,179.96424076216846,-492.87,512.7,1005.57,-7.5,0.0,1125.0,1125.0,0.7328174973177156,0.5110657012964837,0.6089038420710522,64.25848919749305,0.41420533032332935,66.40783086353596,0.11979166666666667,92,0.27035869166666665,0.002506360621152487,2.8112409969729244e-06,33.32299999999999,0.01099999999999891,-5.5902792942374955e-06,93.37400000000001,0.323250161123962,1.0799999999999983,-0.0003897223279411699
S081,8960.0,8989.984375,N1,0.7997760416666677,121.48688815825733,-272.41,284.7,557.11,-5.92,0.0,1125.0,1125.0,0.5385124508516236,0.4990866223384697,0.16731319911238984,64.26974336504887,0.3536775236818971,65.13063795173512,0.040625,32,0.27757335,0.00334363352669418,5.061977501621504e-06,33.33166666666667,0.0106718737290554,-7.29166864465272e-07,85.07166666666667,6.3632099254665135,19.61999999999999,-0.011421426709371393
S081,8990.0,9019.984375,W,-0.4677499999999997,170.38006768826668,-731.11,621.57,1352.68,-10.595,0.0,1125.0,1125.0,9.114672380517398,1.3686370292039938,7.8119163670887355,64.19983274435317,0.7410694504643305,71.50524456289902,0.04479166666666667,28,0.2772958833333333,0.010741709689479392,-1.41798892632078e-05,33.342333333333336,0.01646882576938055,9.340280311491775e-06,63.242333333333335,5.9636335027863305,19.560000000000002,-0.010745940415022899
S081,9020.0,9049.984375,N1,-0.3162812500000007,61.95429200749586,-175.12,153.7,328.82,4.35,0.0,1125.0,1125.0,0.48768581750674506,0.34546761536197407,0.22242937393448936,64.16636662942805,0.27819701259989726,65.00769185258002,0.021875,20,0.26923806666666666,0.0025826097515669814,3.4875543314763213e-06,33.34066666666667,0.01459071241882552,-4.722223503207747e-06,51.23766666666667,0.6101731084063131,2.710000000000001,-0.0004406598417588546
S081,9050.0,9079.984375,N1,0.1226041666666673,82.0820042288096,-240.42,546.21,786.63,-0.315,0.0,1125.0,1125.0,0.47821349943478875,0.23290278357551294,0.26165331375165546,64.12084727026215,0.23555680924293215,65.00769185258002,0.034375,29,0.28224797500000004,0.004796743043396739,7.948081366124503e-06,33.347333333333346,0.01590248058916666,1.5277781922141531e-06,54.431666666666665,2.145115511005306,5.670000000000002,0.0037765635244584213
S081,9080.0,9109.984375,W,0.1466822916666652,147.3085425588609,-839.16,819.44,1658.6,2.84,0.0,1125.0,1125.0,12.567395397747829,4.183772698540823,6.765260206357344,64.18786222876143,2.396092479059681,98.1936861514018,0.021875,6,0.2751614416666666,0.006561274597713253,-3.1653535062265355e-06,33.339333333333336,0.014360439485691353,-1.2708336780689364e-05,57.84066666666668,1.289146832426608,3.780000000000001,0.002242639497243788
S081,9110.0,9139.984375,N1,0.38046875000000013,84.44084579535215,-405.55,500.07,905.62,4.045,0.0,1125.0,1125.0,4.957450792431025,1.1153283141137809,3.6415985822678203,63.9906969769419,0.6877441907169968,69.13031173081747,0.051041666666666666,22,0.2869012083333333,0.005414173103832563,7.416579051806387e-06,33.312666666666665,0.013399834161493858,4.722223503207107e-06,63.43066666666667,3.5378326070569757,11.61,0.006308126711188886
S081,9140.0,9169.984375,W,-0.006281250000000563,137.0835233615352,-677.91,644.62,1322.53,-0.45999999999999996,0.0,1125.0,1125.0,30.30970904605647,32.51719895811441,20.380099028584983,67.51245322873216,15.386307247189581,173.60299536586342,0.11979166666666667,36,0.296335825,0.02642570419297043,1.138219254074233e-05,33.29466666666667,0.018390818965511944,-7.1527797180935385e-06,77.87233333333332,3.813033510940542,13.829999999999998,0.006852744914481584
S081,9170.0,9199.984375,W,-0.0427135416666656,171.4560789358107,-827.01,749.65,1576.6599999999999,3.7,0.0,1125.0,1125.0,16.83374535386849,11.05677224404108,10.215330881867784,64.76505390195634,7.747330276296787,115.04347004502254,0.06666666666666667,18,0.2951511833333333,0.021105373701967998,-1.1358095528997265e-05,33.285666666666664,0.033732608687869196,5.072918042783785e-05,86.60333333333334,1.75463829764301,5.010000000000005,-0.0023061117366839578
S081,9200.0,9229.984375,W,-0.10891666666666708,89.96107977303605,-706.34,467.19,1173.53,4.11,0.0,1125.0,1125.0,24.21339266463081,4.852377956383573,2.8721436218223837,64.96804667732218,2.412164159688886,84.24962907930218,0.05,13,0.29200275,0.01069081175063428,-5.450567450783262e-06,33.327333333333335,0.027071920672329143,-3.256945327947511e-05,83.21933333333332,0.8068908779313907,2.6899999999999977,-0.0011660419829757993
S081,9230.0,9259.984375,W,-0.11423437499999993,23.01862948735911,-118.97,85.89,204.86,2.64,0.0,1125.0,1125.0,4.464580902939143,2.526989727587616,0.9322020441093586,65.11832234307126,1.1305103083124486,75.03332592921628,0.041666666666666664,14,0.29525795,0.00560771998803138,6.988234534568831e-06,33.26733333333333,0.024073960113690843,-2.4444451075428076e-05,81.20566666666667,0.7324556110934113,2.799999999999997,0.0007578127055698526
S081,9260.0,9289.984375,W,-0.15009895833333325,41.210637042624775,-413.89,135.52,549.41,1.495,0.0,1125.0,1125.0,0.4560061658178416,0.4616123238172915,0.2796249348085157,64.92462940315394,0.3191737193374938,66.48308055437865,0.0125,11,0.31871631666666667,0.0033177485337281903,5.233517478710253e-06,33.248000000000005,0.013012814197296767,9.236113616568105e-06,73.382,4.144504312942623,13.41000000000001,-0.007447779798117351
S081,9290.0,9319.984375,N1,0.0914427083333333,12.838840596662507,-86.15,48.95,135.10000000000002,0.98,0.0,1125.0,1125.0,0.48989794855663565,0.2914805954090255,0.20577597041442908,64.96465113540064,0.23791354666004955,65.06919393998976,0.0,0,0.32752127499999995,0.002582529125239116,3.3567190095266358e-06,33.251333333333335,0.011469767022725293,-3.1944453109936934e-06,55.625,5.914927303019033,17.570000000000007,-0.010570037589528425
S081,9320.0,9349.984375,N1,0.0545833333333334,11.046325220092678,-86.07,42.3,128.37,0.925,0.0,1125.0,1125.0,0.2776075867519154,0.13297069826552851,0.3426671707802712,64.96690034093169,0.25369290776332765,65.79513659838392,0.005208333333333333,2,0.3341062833333333,0.002531102635820118,3.605982749018759e-06,33.242666666666665,0.00963788819653548,-2.430556214886506e-06,44.074666666666666,1.5094739333806184,4.75,-0.0023418756352744244
S081,9350.0,9379.984375,N1,0.005864583333334039,104.40199383563832,-1302.66,593.29,1895.95,3.35,0.0,1125.0,1125.0,11.316714032485558,5.806807154676073,3.805372293210029,64.13878937971369,3.8118604693852682,132.67629780786015,0.035416666666666666,8,0.3052902333333333,0.016956241009204318,-1.0199548339721224e-05,33.220666666666666,0.018961950204436764,-1.1944447684582572e-05,50.964333333333336,4.534869114857549,13.770000000000003,0.007986078555251344
S081,9380.0,9409.984375,N2,-1.394291666666666,48.676161092108835,-126.65,240.54,367.19,-1.365,0.0,1125.0,1125.0,0.45825756949558405,0.47691386182121215,0.48106056877833303,64.00139670558764,0.3699253086714268,65.25335240430181,0.128125,82,0.3064107,0.0021518805364920605,2.413746748520716e-06,33.205999999999996,0.019252705437591076,-1.2361114464277994e-05,59.30933333333334,1.470206183575019,4.990000000000002,0.002641528494338242
S081,9410.0,9439.984375,N2,2.272859375,65.06354046879397,-162.14,302.5,464.64,-2.015,0.0,1125.0,1125.0,0.5055894181272214,0.4427647022936926,0.27060086176671516,64.16255600438083,0.3457339796648246,64.94613152451807,0.39479166666666665,140,0.3100182083333333,0.00199303288940847,2.4289214488176642e-06,33.16333333333333,0.019379255804998233,-2.319445073634265e-05,59.327666666666666,2.055585372156122,6.789999999999999,-0.0036599662706071692
S081,9440.0,9469.984375,N2,-0.8699583333333331,54.907137535971565,-159.65,135.22,294.87,-5.8149999999999995,0.0,1125.0,1125.0,0.3557013318783049,0.3790736493047521,0.09090593428863095,64.01731067985205,0.2613586028879254,64.52131430775415,0.15833333333333333,73,0.3142551083333333,0.0017287788936888111,1.2005782336638006e-06,33.135,0.015652475842497685,-2.2187506018744602e-05,55.620333333333335,0.3489554253610187,0.8500000000000014,-0.0005821182134652284
S081,9470.0,9499.984375,N2,-1.2001249999999999,53.53833307376789,-146.22,162.56,308.78,-10.895,0.0,1125.0,1125.0,0.34529953784118117,0.10152910775842672,0.045595976308831845,63.942259110344935,0.1581134577197169,64.72248450113763,0.019791666666666666,17,0.31744629166666666,0.0016903008035841424,8.785490664466828e-07,33.11000000000001,0.016329931618554464,-1.7916671526873824e-05,52.87866666666667,1.0938425643370975,3.450000000000003,-0.0013923614888133387
S081,9500.0,9529.984375,N1,0.3466250000000012,152.1294317786564,-627.51,1068.24,1695.75,-7.7,0.0,1125.0,1125.0,4.661719731963195,1.2587954449481544,2.1111864649837435,64.0132573601837,0.9951794505950007,71.45628033979938,0.05,17,0.31938872499999993,0.002467170545255229,6.000290256155092e-07,33.08200000000001,0.014236104336042577,-1.6388893334662283e-05,55.94566666666666,3.084118116343075,9.050000000000004,0.005113786109425485
S081,9530.0,9559.984375,N1,0.7367760416666669,46.660220422395234,-184.45,104.46,288.90999999999997,0.325,0.0,1125.0,1125.0,0.44662604759338526,0.22219509383022437,0.39999999999999997,64.14066429791623,0.3653994462844711,65.06150935845248,0.18229166666666666,107,0.322921325,0.0024284448492897033,2.9699263698802053e-06,33.03066666666667,0.026068286394688747,-4.0347233167108375e-05,62.975333333333325,0.9620247167071927,2.8699999999999974,-0.0014698615098365632
S081,9560.0,9589.984375,N1,0.8609791666666681,162.2615788548809,-819.4,800.84,1620.24,2.965,0.0,1125.0,1125.0,15.974712954950256,10.472550098020804,5.265578634810708,64.55308496219888,4.3741967106124955,102.98543586352393,0.07291666666666667,25,0.339538575,0.016328471360715562,1.5770135137297938e-05,32.980333333333334,0.025097587312107945,-3.253473104783253e-05,62.339333333333336,0.41762769171702274,1.5700000000000003,0.0004888890215085226
S081,9590.0,9619.984375,N1,-1.3323750000000003,54.702201233369415,-151.83,327.31,479.14,-3.215,0.0,1125.0,1125.0,0.301167793647587,0.11613999424784252,0.11987768650679834,64.19765295742808,0.14755142931063106,64.77653896280658,0.027083333333333334,18,0.3611079666666666,0.0035625225424627933,5.729409106285023e-06,32.943333333333335,0.013984117975602398,-8.888891300155475e-06,64.697,1.7988295268497987,4.560000000000009,0.0029717716394779847
S081,9620.0,9649.984375,N2,0.30188020833333307,50.34913346714023,-279.48,215.67,495.15,0.915,0.0,1125.0,1125.0,0.39874885710390023,0.27161545721335933,0.13591255358583407,64.2248232756113,0.23092253354245348,64.70703207534712,0.17083333333333334,91,0.3711615999999999,0.0035244546939916816,5.630320971766755e-06,32.911333333333324,0.015434449203720441,-1.7777782600311296e-05,65.788,2.366783189619756,8.000000000000007,-0.003305695341171695
S081,9650.0,9679.984375,N2,0.1376718750000002,37.565962719576135,-114.76,105.65,220.41000000000003,-1.1949999999999998,0.0,1125.0,1125.0,0.47981726664950275,0.2617030727062426,0.1874276480775686,64.27249297817205,0.26176587024475245,64.5445582524197,0.3229166666666667,151,0.380660225,0.002539916985068936,3.822686149817209e-06,32.867666666666665,0.0201135664553929,-2.9201396810273053e-05,56.37833333333333,1.3811977491374008,4.780000000000001,-0.002351702026828891
S081,9680.0,9709.984375,N2,-0.30400000000000005,39.19952376863142,-125.12,97.1,222.22,2.755,0.0,1125.0,1125.0,0.4933542717966472,0.3342289400620479,0.15612494995995993,64.27111967098065,0.27622678813513385,64.5445582524197,0.0,0,0.38781088333333336,0.0026732792165657135,3.980137364403574e-06,32.84066666666667,0.013148721948877349,-5.486112599313901e-06,51.24433333333333,1.525342985109324,5.399999999999999,-0.0026782298931830235
S081,9710.0,9739.984375,W,-0.481942708333334,148.4900484012132,-814.74,631.5,1446.24,-2.37,0.0,1125.0,1125.0,20.007405285944543,7.096761475313934,9.825932894553265,64.44352224821054,2.3414611345039655,89.16277250063504,0.05625,15,0.3824638666666667,0.01295956481132329,-1.6222753098620088e-05,32.83133333333333,0.011469767022723452,2.8472229945806947e-06,50.27233333333333,0.936446059430132,3.1799999999999997,0.0015828823738287686
S081,9740.0,9769.984375,N1,0.8554791666666666,39.94995417810763,-406.33,410.89,817.22,1.78,0.0,1125.0,1125.0,0.4715472095488778,0.35568150302935664,0.5013480092599241,65.06438446192922,0.3192432566704825,66.49060083951716,0.10833333333333334,81,0.371545825,0.0027736013492163938,3.7927633986445844e-06,32.81033333333333,0.020245712852079906,-3.0381952686076274e-05,54.69433333333334,0.9379043424334682,3.460000000000001,-7.281251975165996e-05
S081,9770.0,9799.984375,N2,0.057218749999999936,8.389297545463215,-22.56,17.25,39.81,1.255,0.0,1125.0,1125.0,0.4661723107005487,0.4746972262371271,0.4851796631718559,65.1953889886893,0.3719380954171398,66.03029607687671,0.19270833333333334,122,0.376049625,0.0021145597534810083,2.4606523602030067e-06,32.74466666666667,0.0199555060627957,-3.0138897064590205e-05,54.28266666666668,0.9495084108222643,3.3500000000000014,-0.0010202780545459115
S081,9800.0,9829.984375,N2,-0.10946875000000005,8.761406257765175,-24.15,18.78,42.93,1.755,0.0,1125.0,1125.0,0.3487312694093962,0.25184863385573486,0.4914624840859055,65.04083932548563,0.30043552224674136,66.03029607687671,0.075,54,0.37826945000000006,0.0016914211620705191,1.3440932465530668e-06,32.67533333333333,0.022020192753219037,-3.222223096306355e-05,50.23433333333333,2.381146339242695,8.049999999999997,0.002710729901999213
S081,9830.0,9859.984375,N2,-0.005401041666666624,7.596549500814976,-22.37,12.3,34.67,1.72,0.0,1125.0,1125.0,0.2449489742783178,0.13188915142607024,0.41480835601783894,64.93423355932521,0.2468543355991417,65.7723346096214,0.2760416666666667,145,0.38309363333333335,0.0018966003134263428,2.1334471933179276e-06,32.63833333333333,0.0161417333504032,-2.135417245935457e-05,57.52666666666667,0.8466771652892399,3.460000000000001,-0.0004389584524084345
S081,9860.0,9889.984375,N2,0.0752083333333333,7.149488593186034,-20.2,10.88,31.08,1.755,0.0,1125.0,1125.0,0.21750389124871608,0.09090593428863095,0.3717436742904982,64.89666173477161,0.21976278718406816,65.7723346096214,0.20729166666666668,124,0.38613521666666667,0.0020544004729009264,1.8257287938717393e-06,32.59333333333334,0.018678567634829456,-1.7569449210463068e-05,54.648,2.603309944410512,8.329999999999998,-0.00427777893819958
S081,9890.0,9919.984375,N2,-0.10047916666666665,7.450454172368687,-20.18,11.63,31.810000000000002,1.525,0.0,1125.0,1125.0,0.23273500294803579,0.13188915142607024,0.30547663122114954,64.87050593663398,0.20093827858911936,65.7723346096214,0.15208333333333332,96,0.38857924166666663,0.0016991621758768532,1.2958482247852207e-06,32.564,0.01280624847486707,-6.5972240118340844e-06,43.85866666666666,1.7335526784291535,6.150000000000006,-0.000529305699138915
S081,9920.0,9949.984375,N2,-0.0195833333333333,7.468647602738322,-21.74,12.16,33.9,1.95,0.0,1125.0,1125.0,0.19895287950640195,0.15612494995995993,0.27161545721335933,64.8645103579952,0.18676014260601007,65.7723346096214,0.13541666666666666,93,0.39222936666666663,0.001996727221953191,1.6997817110953016e-06,32.538000000000004,0.01869046102516727,-2.409722875901224e-05,49.431333333333335,0.6365570586278099,2.9299999999999997,0.0008088196638508208
S081,9950.0,9979.984375,N3,-0.009401041666666643,7.087812890330293,-19.99,11.04,31.029999999999998,1.61,0.0,1125.0,1125.0,0.19763137332473868,0.20912350152216008,0.2639756801719094,64.8714875455423,0.21529892835440415,65.98484674529449,0.14375,99,0.3957512083333333,0.0017150380748729372,1.5302922987989028e-06,32.507666666666665,0.017451520150277396,-1.579861539675919e-05,49.32266666666666,0.7791616577379109,2.1000000000000014,-0.0012718753450182692
S081,9980.0,10009.984375,N2,0.1532291666666667,7.2420318849396565,-20.78,12.74,33.52,1.58,0.0,1125.0,1125.0,0.26179634525502626,0.37727176461405115,0.33083536680735265,64.96264889451167,0.3130472941920928,66.03029607687671,0.178125,90,0.3986115833333333,0.0018847263133911242,1.5826058980593278e-06,32.49400000000001,0.01019803902718549,-8.263891130612343e-06,54.639,4.403028768170081,13.770000000000003,0.007906356311403082
S081,10010.0,10039.984375,N2,-0.0874635416666667,7.2310093069798445,-19.53,12.64,32.17,1.64,0.0,1125.0,1125.0,0.28679714811459794,0.4470376549358629,0.3139964171770117,65.0063489744426,0.357376570277718,66.03029607687671,0.24479166666666666,94,0.40215483333333335,0.0014935311810902719,6.85932477737761e-07,32.476000000000006,0.016852299546352933,-2.159722808084605e-05,68.50933333333334,2.540160012457659,8.760000000000005,0.004416390086911375
S081,10040.0,10069.984375,N2,0.0003854166666666788,6.718530031856224,-18.38,11.16,29.54,1.605,0.0,1125.0,1125.0,0.25103086076328457,0.38349181506548774,0.21448217680419665,64.92348883423789,0.29399136708602536,65.98484674529449,0.20416666666666666,128,0.40500441666666664,0.0019941611627588033,2.0147852687677016e-06,32.458666666666666,0.014313940369055204,-8.541668983742477e-06,70.68633333333334,0.5898332155976155,1.8400000000000034,-0.0007846877128601666
S081,10070.0,10099.984375,N2,0.058109374999999984,6.706617403613671,-17.29,11.05,28.34,1.7149999999999999,0.0,1125.0,1125.0,0.23769865595258774,0.3927939782825088,0.17950549357115012,64.93268994369235,0.29921008725188586,66.03029607687671,0.21145833333333333,116,0.4086758916666666,0.0018396636322791657,1.9947533622920387e-06,32.452,0.015790292376435755,-1.1597225368171153e-05,68.83433333333332,1.0232649814306283,3.780000000000001,-0.000966354428807081
S081,10100.0,10129.984375,N2,0.004020833333333289,6.966845298715383,-19.61,11.08,30.689999999999998,1.7149999999999999,0.0,1125.0,1125.0,0.3005781466145239,0.44385146531682074,0.28135800395383975,64.99006574293318,0.35163389468216866,66.03029607687671,0.23125,104,0.41227249166666663,0.0021340553725861665,1.9782377328118832e-06,32.43333333333333,0.016397831834999335,-1.6041671018249237e-05,63.925333333333334,2.1072331516838743,5.530000000000001,-0.0029230563484853355
S081,10130.0,10159.984375,N2,-0.05393229166666669,7.107530924249685,-20.72,11.38,32.1,1.525,0.0,1125.0,1125.0,0.2897556441785618,0.4728570079844434,0.2653920547196794,65.02854318032716,0.35652981781625853,65.98484674529449,0.28854166666666664,121,0.4151113583333333,0.0015296881642774631,5.653931655254945e-07,32.422666666666665,0.018961950204438114,-1.673611565107489e-05,62.40466666666667,1.2774994672753839,4.469999999999999,-0.001908958851171564
S081,10160.0,10189.984375,N2,0.08310416666666666,6.908341278361686,-19.44,10.97,30.410000000000004,1.525,0.0,1125.0,1125.0,0.25920342384034123,0.4530842893589325,0.24829278192399304,65.0024003131694,0.3391708416211291,66.03029607687671,0.25,101,0.41821722499999997,0.0018224505684311494,1.9019673128166553e-06,32.39099999999999,0.019382122346808358,-2.336806189454793e-05,57.165333333333336,2.074765421814128,7.510000000000005,-0.00191701440891233
S081,10190.0,10219.984375,N2,-0.1367447916666667,6.881067048542353,-18.29,10.34,28.63,1.39,0.0,1125.0,1125.0,0.2901579281423978,0.4735678336369094,0.22522895372758409,65.02247502854735,0.3544824799648999,65.98484674529449,0.2875,122,0.421856475,0.001963142726864667,2.1260875993076105e-06,32.35566666666667,0.01725945795466425,-1.6354171103017483e-05,52.96066666666666,0.7565665131955615,2.0500000000000043,-0.00041090288924232056
S081,10220.0,10249.984375,N2,0.05773437500000005,6.568353034489952,-17.88,11.03,28.909999999999997,1.36,0.0,1125.0,1125.0,0.2835477130141514,0.4604956097480433,0.20728643209471176,64.9991856471204,0.3440424554860857,65.98484674529449,0.2625,110,0.42565602500000005,0.0019328714022687425,1.992834524965964e-06,32.355000000000004,0.01962141687034697,-2.881945226222976e-06,50.53733333333333,0.6500355545831493,2.3299999999999983,-0.0008252085571854811
S081,10250.0,10279.984375,N3,0.09280729166666665,6.582385323436849,-18.05,12.05,30.1,1.725,0.0,1125.0,1125.0,0.2814409074299612,0.4535689874637472,0.21448217680419665,64.98771320952861,0.3479800703989311,66.03029607687671,0.25,124,0.428153425,0.00182172343611986,1.1922609571020392e-06,32.34066666666668,0.010624918300339035,4.166667796947551e-07,48.467333333333336,0.9689029305812261,3.1499999999999986,0.000947014145782917
S081,10280.0,10309.984375,N2,-0.09188020833333334,6.872464339684368,-19.32,10.65,29.97,1.43,0.0,1125.0,1125.0,0.32196600655193397,0.4883528419738017,0.248292781923993,65.04905532005583,0.3730307873564496,65.98484674529449,0.3375,138,0.4313230416666667,0.0017392545069455842,1.6494368623689347e-06,32.326,0.011999999999999823,-8.611113447025985e-06,46.780333333333346,2.183641428643652,5.0,-0.0036252440389659387
S081,10310.0,10339.984375,N2,0.09829166666666665,6.677693658923757,-17.99,11.9,29.89,1.4449999999999998,0.0,1125.0,1125.0,0.32587855344778704,0.48042294553572507,0.2673148859751153,65.0336740968451,0.36711732729974517,66.03029607687671,0.30104166666666665,127,0.4349092,0.001742525708083912,1.3955238160600631e-06,32.30066666666667,0.014360439485692275,-8.194446667331106e-06,40.818666666666665,1.6471606546485449,5.039999999999999,-0.002342708968833814
S081,10340.0,10369.984375,N3,-0.08097916666666674,6.988000479958434,-18.75,11.67,30.42,1.09,0.0,1125.0,1125.0,0.35997082250587414,0.4959460218584501,0.3119978604582979,65.0782871902843,0.39511987068552396,66.03029607687671,0.36666666666666664,131,0.43741721666666666,0.0018061448639913249,1.7370495163437329e-06,32.284,0.013808210118137827,-1.0902780735345894e-05,41.897000000000006,1.1658649149880098,3.549999999999997,0.002046979721945453
S081,10370.0,10399.984375,N2,0.07397916666666664,7.442326977021321,-19.75,12.69,32.44,1.705,0.0,1125.0,1125.0,0.39461985047497156,0.4997872811395753,0.30617913012193076,65.08163973930913,0.3831912178602499,65.98484674529449,0.35104166666666664,126,0.44068295,0.0017744658954645057,6.064641402083673e-07,32.27133333333333,0.01707499796648766,-1.0416669492369825e-05,44.53,0.22957932543386056,0.8800000000000026,1.9583338645654106e-05
S081,10400.0,10429.984375,N3,-0.15612499999999999,7.1323266485681245,-22.41,11.89,34.3,1.27,0.0,1125.0,1125.0,0.4469029225930641,0.5450176793768559,0.34558223816239936,65.08495052437641,0.3781074443523461,65.98484674529449,0.36354166666666665,149,0.44306301666666664,0.00188888069141195,1.7930803475152847e-06,32.254,0.014047538337138574,-1.944444971909179e-06,42.769,1.1760678835282705,3.6099999999999994,-0.002064757504545763
S081,10430.0,10459.984375,N3,0.11870833333333325,6.838635234698798,-18.82,10.92,29.740000000000002,1.65,0.0,1125.0,1125.0,0.41938565974198766,0.48741875213265595,0.14359895446075582,65.13281681510826,0.38123535541447373,65.98484674529449,0.434375,195,0.4467131166666667,0.001769116348083295,1.7923038716102162e-06,32.23866666666667,0.016069294390926088,-1.701389350420416e-05,39.61233333333333,0.5925351372609806,2.030000000000001,-0.0010421877827115297
S081,10460.0,10489.984375,N3,-0.09963541666666663,6.944715899846371,-19.24,11.22,30.46,1.08,0.0,1125.0,1125.0,0.4582279708440864,0.46639570816766984,0.1402154530138846,65.14626322994842,0.36344945673594614,65.98484674529449,0.4239583333333333,184,0.4500001500000001,0.0021934328902810433,2.726765930654814e-06,32.217999999999996,0.009797958971130763,-7.22222418137448e-06,38.62799999999999,0.028095076674273894,0.10000000000000142,4.1944455822606673e-05
S081,10490.0,10519.984375,N3,0.07846875000000002,6.829109671492576,-18.76,11.84,30.6,1.395,0.0,1125.0,1125.0,0.46097604594008523,0.4827481640882289,0.15743991358257564,65.10811386206379,0.3710471549585651,65.98484674529449,0.38333333333333336,172,0.4533194833333333,0.0017439483219758073,8.587584794809253e-07,32.198,0.02103964511741231,-1.6527782261225698e-05,38.64466666666667,0.06162971866090425,0.17999999999999972,9.0069468877352e-05
S081,10520.0,10549.984375,N3,-0.06378124999999998,6.76037263011306,-18.18,11.19,29.369999999999997,1.495,0.0,1125.0,1125.0,0.46137132362543826,0.46137132362543826,0.1567353572817002,65.15344726125585,0.3696529562785957,65.98484674529449,0.007291666666666667,7,0.4570013916666666,0.0017888583850034674,1.774501132405906e-06,32.17466666666666,0.013349989596335316,-1.1805558758020664e-06,38.73166666666667,0.023676054476106375,0.0799999999999983,1.7708338137028914e-06
S081,10550.0,10579.984375,N3,-0.0005104166666666613,6.650445156614818,-17.99,11.02,29.009999999999998,1.4849999999999999,0.0,1125.0,1125.0,0.4665876049098985,0.4742684425044065,0.18113022862631797,65.12575415040048,0.3745837800286576,65.98484674529449,0.3958333333333333,193,0.4599897333333333,0.001648505119460927,1.0265159034602576e-06,32.16033333333333,0.010796089827134873,-1.0243058334163732e-05,38.57899999999999,0.13176620709929182,0.38000000000000256,-0.00023586811953887874
S081,10580.0,10609.984375,N3,0.08902083333333334,6.500546521862551,-17.45,10.23,27.68,1.4049999999999998,0.0,1125.0,1125.0,0.475762363358945,0.4559490540954719,0.17809453930582925,65.14789006558014,0.38232185797148255,65.98484674529449,0.007291666666666667,7,0.46433356666666664,0.0018458992241061206,1.6001853299113911e-06,32.14466666666666,0.015860503004492692,-2.055556113160656e-05,38.51933333333333,0.07928569998569852,0.2600000000000051,-4.1319455653064394e-05
S081,10610.0,10639.984375,N3,-0.11777604166666666,6.667975798690784,-16.75,10.2,26.95,1.1949999999999998,0.0,1125.0,1125.0,0.46798548766672954,0.45780153807505813,0.20681740134717871,65.16182860336556,0.38140276035802256,65.98484674529449,0.011458333333333333,11,0.4662972333333333,0.0016875616469398111,1.083899599582134e-06,32.132999999999996,0.014866068747317334,-1.3229170255307916e-05,38.43966666666667,0.0429327639713795,0.14000000000000057,4.593751246134778e-05
S081,10640.0,10669.984375,N3,0.126421875,7.047145710553421,-18.12,14.0,32.120000000000005,1.56,0.0,1125.0,1125.0,0.49984372557830503,0.41689446897732874,0.27700500145905915,65.11127581189855,0.36783666693208317,65.98484674529449,0.3541666666666667,175,0.46965919166666664,0.0020783620205016935,2.1911284155621795e-06,32.11333333333334,0.013743685418725674,-1.1458336441606307e-05,38.56333333333334,0.21362480089061586,0.7999999999999972,0.0003155556411555006
S081,10670.0,10699.984375,N3,-0.053755208333333346,7.048595716558988,-17.89,13.14,31.03,1.46,0.0,1125.0,1125.0,0.4959460218584501,0.4548923865414031,0.30147028310800755,65.05051902700575,0.38020737827596696,65.98484674529449,0.275,159,0.4737574,0.0021004400546869566,2.4204576878411747e-06,32.09333333333335,0.012736648783027984,-5.9027793790083334e-06,40.553999999999995,0.5996587918697316,1.8000000000000043,0.0010188197208169808
S081,10700.0,10729.984375,N3,-0.056401041666666665,6.841135232273143,-18.03,12.95,30.98,1.44,0.0,1125.0,1125.0,0.502009849394301,0.4550056757124636,0.2306556739613304,65.08330567455117,0.3774773365399771,66.03029607687671,0.32083333333333336,168,0.47793044166666665,0.0019489438797967503,2.2124439595388325e-06,32.065333333333335,0.016069294390927257,-1.5069448532295766e-05,41.48433333333333,0.34559787164982436,0.8999999999999986,0.0005471876484341478
S081,10730.0,10759.984375,N2,0.108875,7.021222292761781,-18.1,12.17,30.270000000000003,1.745,0.0,1125.0,1125.0,0.5041322302288909,0.47538247576439846,0.3108271195759612,65.07937681988624,0.38692729969982376,65.98484674529449,0.31354166666666666,165,0.48075880833333334,0.0016001137527054852,1.531103496935629e-06,32.04766666666667,0.01819951159295834,-2.0104172120271987e-05,40.285333333333334,0.5893653837438675,1.75,-0.0009811113772546071
S081,10760.0,10789.984375,N2,-0.17879166666666682,11.561025577088618,-44.12,65.69,109.81,1.41,0.0,1125.0,1125.0,0.7481161235897807,0.548093879770306,0.7531466110315662,65.075836759401,0.3276355655194718,66.71581521648372,0.215625,117,0.484803575,0.0019932440294759797,1.8187750159437395e-06,32.03633333333333,0.011685698761970481,-2.2569450566801424e-06,42.158,2.209991553528354,5.909999999999997,0.0038638204925728345
S081,10790.0,10819.984375,N2,0.21103645833333337,8.642525577216272,-22.56,21.72,44.28,1.045,0.0,1125.0,1125.0,0.39782394207600036,0.48160160316039924,0.5393822018960417,65.10458726712365,0.27196833911785323,66.03786792439622,0.184375,120,0.48861375833333326,0.002445712973742129,3.0509927981208805e-06,32.02133333333333,0.018208667044996647,-2.0347227741760512e-05,48.03033333333334,2.1035897624985935,6.400000000000006,0.0036595496038274757
S081,10820.0,10849.984375,N2,-0.042854166666666596,7.161012954968915,-23.6,15.48,39.08,1.165,0.0,1125.0,1125.0,0.35251452885740125,0.20621580103673484,0.2530971349545905,65.05477954854626,0.24501610161019138,65.96969000988257,0.15208333333333332,91,0.49343775,0.001998843954431322,1.689994816079318e-06,32.001999999999995,0.013266499161422423,-1.1111114125192125e-06,51.72099999999999,2.180823009783234,6.440000000000005,-0.0033892023082688558
S081,10850.0,10879.984375,N2,-0.11283854166666667,6.6510035830264895,-18.79,12.04,30.83,0.985,0.0,1125.0,1125.0,0.414808356017839,0.2263462809256845,0.19737865470545016,65.08678085764329,0.2592442653537374,65.96969000988257,0.21666666666666667,116,0.49678894166666665,0.001876480319178403,2.1710741566498883e-06,31.994000000000003,0.010198039027186188,-9.652780396262603e-06,46.207333333333324,1.9491552586241616,5.890000000000001,-0.0033577092441702595
S081,10880.0,10909.984375,N2,0.020145833333333293,9.709955709196926,-39.41,29.35,68.75999999999999,0.9,0.0,1125.0,1125.0,0.448952291142636,0.45904773868181603,0.506194269909181,65.05570113402018,0.3251921909347923,66.2268827591938,0.18541666666666667,107,0.5001508583333333,0.0021300079354149197,2.737428910977883e-06,31.97933333333334,0.012092238098144649,-3.6111120906879683e-06,42.53366666666666,1.5831918884189484,4.8799999999999955,0.002509479847406643
S081,10910.0,10939.984375,N2,0.0919166666666667,7.275099345923433,-20.01,18.03,38.040000000000006,1.25,0.0,1125.0,1125.0,0.32226244211391164,0.2988403512840185,0.3770718230287463,65.03557343083563,0.2854473490056237,65.96969000988257,0.16354166666666667,110,0.5036620749999999,0.0015535651373668532,6.578272183776148e-07,31.966000000000008,0.009521904571390263,-8.055557740765275e-06,49.57033333333334,2.150233294836219,6.190000000000005,0.003695591280271072
S081,10940.0,10969.984375,N2,-0.059578124999999996,6.589824272058005,-18.08,13.64,31.72,1.125,0.0,1125.0,1125.0,0.36699204313203065,0.3353843152100123,0.32177216534201475,65.04586552730028,0.3027008496340666,65.96969000988257,0.19375,128,0.5072481583333333,0.002067016335993479,2.582807775284239e-06,31.95533333333333,0.008844332774280877,-5.555557062596742e-07,50.393,1.60440258871228,4.949999999999996,-0.002839132714608484
S081,10970.0,10999.984375,N2,-0.025697916666666668,7.440135830721036,-23.77,15.97,39.74,1.185,0.0,1125.0,1125.0,0.3688603295399674,0.312354132623,0.44393946463891776,65.07467933189206,0.3238207087593309,66.70082458260917,0.24791666666666667,149,0.5102151,0.0016339461659838463,9.152016371532158e-07,31.946666666666665,0.011642832797715072,-3.472223164122971e-07,43.83533333333333,1.772839028852372,5.600000000000001,-0.0025577090271563106
S081,11000.0,11029.984375,N2,-0.005906249999999943,8.146927418739592,-23.72,16.93,40.65,0.73,0.0,1125.0,1125.0,0.3201562118716424,0.2866211658414872,0.4719094910131956,65.10355272229364,0.3067402846025366,66.2268827591938,0.27291666666666664,157,0.5130433083333333,0.0018050430225520727,1.1889354353666084e-06,31.922666666666668,0.012092238098144446,-5.902779379009036e-06,45.096000000000004,1.007292079455276,2.9499999999999957,0.001703889351098457
S081,11030.0,11059.984375,N2,0.14446875,7.097100745276677,-21.27,13.83,35.1,1.11,0.0,1125.0,1125.0,0.3041309910584947,0.33653249956562725,0.45778376142259813,65.09458847964709,0.3057924111713189,65.96969000988257,0.271875,148,0.51684285,0.002159848727920543,2.583646100164418e-06,31.914666666666673,0.012310790208412662,-7.152779718093303e-06,46.213,0.692469734597357,2.25,-0.0009556599814615842
S081,11060.0,11089.984375,N2,-0.10824479166666666,6.62537268546661,-18.59,13.25,31.84,0.975,0.0,1125.0,1125.0,0.3095625834230545,0.3234941073651883,0.44385146531682074,65.10041257135613,0.2955075394708515,65.96969000988257,0.2677083333333333,131,0.520578225,0.0016920152799866698,1.5508022870014965e-06,31.890666666666668,0.015040685563570983,-1.4236114972904146e-05,41.71933333333333,1.4450004229142015,4.189999999999998,-0.0025020145676037777
S081,11090.0,11119.984375,N2,0.10372395833333331,7.402326973440018,-18.78,15.26,34.04,0.595,0.0,1125.0,1125.0,0.2998679541574184,0.33268002384256395,0.49814652121361064,65.1345863905242,0.3149561906156066,65.96969000988257,0.340625,133,0.5246552000000001,0.002544563032559163,3.1056688112165938e-06,31.877999999999997,0.01107549848389053,4.166667796947555e-06,41.16566666666667,0.5755095326944836,1.9200000000000017,0.0010317711132191614
S081,11120.0,11149.984375,N3,-0.0095572916666667,7.269552374877883,-17.73,16.38,34.11,1.01,0.0,1125.0,1125.0,0.25834803385592514,0.39624978093229135,0.49867881001257264,65.10773105171089,0.3112859854703522,65.96969000988257,0.315625,159,0.5299594333333333,0.0022089835623854037,1.8968650978909286e-06,31.860000000000007,0.016124515496597196,-1.1319447515041352e-05,43.192666666666675,0.3472648684921766,1.2199999999999989,0.00041354177884705317
S081,11150.0,11179.984375,N2,0.016406250000000015,7.131085069781522,-20.91,14.34,35.25,1.36,0.0,1125.0,1125.0,0.26219393532692975,0.42425895361467886,0.5018358224642132,65.10082582418973,0.3356863742357338,65.98484674529449,0.328125,149,0.5333107,0.001997165473030888,2.0098204236709105e-06,31.85133333333334,0.01257864150940954,-6.250001695421913e-06,41.96833333333334,0.4378057661667886,1.4799999999999969,-0.0006659376806471569
S081,11180.0,11209.984375,N2,-0.08690104166666673,7.511428433740632,-20.93,15.5,36.43,0.87,0.0,1125.0,1125.0,0.29127764234584763,0.40232478717449166,0.5006246098625197,65.10135858283994,0.3204590485984916,65.96969000988257,0.315625,142,0.535583975,0.0019279797174871,1.6891508488364875e-06,31.833999999999993,0.012000000000001046,-4.305556723512709e-06,41.244,0.6218231259771537,2.019999999999996,0.0008432641176389196
S081,11210.0,11239.984375,N2,0.007223958333333336,9.571832257323708,-41.51,20.93,62.44,1.75,0.0,1125.0,1125.0,0.6068823663587716,0.46415689509463165,0.5869595253294728,65.11274267189108,0.38529219746644,67.91906948714772,0.058333333333333334,39,0.5406747499999999,0.0016894473270372648,1.754105510553803e-06,31.810666666666666,0.015902480589168412,-1.6597226724507763e-05,46.824000000000005,2.825228722304326,8.980000000000004,0.005082987489959714
S081,11240.0,11269.984375,N2,0.0057135416666666515,6.796449740430044,-17.79,11.16,28.95,1.28,0.0,1125.0,1125.0,0.2434359622330549,0.1978371550810301,0.38261793525003507,65.08816136454163,0.2479082828863784,65.96969000988257,0.203125,125,0.5430975166666667,0.0020226470609217904,1.8543577078878307e-06,31.796,0.01380821011813836,-5.208334746184444e-06,54.73633333333332,1.2444717308516449,4.229999999999997,0.0019414241377561138
S081,11270.0,11299.984375,N2,-0.045880208333333346,7.073431271624822,-18.44,11.31,29.75,1.4649999999999999,0.0,1125.0,1125.0,0.24406141076012453,0.20497289793748072,0.4440176716171704,65.1197313693365,0.26371332690145216,65.96969000988257,0.26666666666666666,139,0.5456802333333334,0.0017413932244677434,6.948560912695463e-07,31.776,0.011718930554164382,-7.291668644658222e-06,51.14533333333334,2.5729771774260954,7.850000000000001,-0.0046204873644985255
S081,11300.0,11329.984375,N2,0.09344791666666669,10.43091147280703,-77.0,29.68,106.68,1.97,0.0,1125.0,1125.0,0.5975608697493131,0.7155241619881811,0.6517071598672384,65.1419694363479,0.4388256532107781,67.95586803212802,0.11875,74,0.5498639083333333,0.002186893721681647,2.875573045674127e-06,31.770666666666667,0.013148721948877068,-1.1597225368170695e-05,47.70666666666667,1.6837900370559535,6.050000000000004,0.002425070102286811
S081,11330.0,11359.984375,N2,0.0006249999999999793,6.544374335466174,-16.93,10.56,27.490000000000002,1.28,0.0,1125.0,1125.0,0.4440860914250999,0.4988876515698588,0.34153961052205284,65.18310748824592,0.38324036292826863,66.2268827591938,0.23854166666666668,123,0.5540902833333334,0.0019120036444496777,2.0327410028051644e-06,31.755999999999997,0.012806248474865424,-3.81944548053526e-06,56.582,1.2628628851410066,4.899999999999999,0.0009722224859544506
S081,11360.0,11389.984375,N2,-0.18087499999999998,6.902886470905366,-18.73,11.72,30.450000000000003,1.045,0.0,1125.0,1125.0,0.43346227048101377,0.4999989149293782,0.3541360280865093,65.2031584121116,0.3875776288861838,66.2268827591938,0.25729166666666664,144,0.5577509749999999,0.0024153036471028628,3.032500171576673e-06,31.732666666666667,0.014360439485691705,-1.1944447684582993e-05,55.52033333333332,1.708239802317643,6.200000000000003,-0.0029523966342221756
S081,11390.0,11419.984375,N2,0.05745833333333331,7.7993094311246915,-22.97,14.45,37.42,1.3,0.0,1125.0,1125.0,0.4977553783402713,0.4856267428111155,0.49565823238733087,65.12813199805633,0.35847702448497726,66.2268827591938,0.14479166666666668,99,0.5615397916666667,0.0022564601403371907,2.5714136749711524e-06,31.720666666666666,0.012364824660660675,-9.583335932979377e-06,50.259,1.577388876170574,4.449999999999996,0.0018926046800685434
S081,11420.0,11449.984375,N2,0.10168229166666663,6.812020803719805,-18.11,12.65,30.759999999999998,1.57,0.0,1125.0,1125.0,0.47857640274452407,0.4948070173057371,0.4267719901741704,65.16145330847498,0.36884196358850546,66.2268827591938,0.19270833333333334,118,0.564987,0.0019722143772926905,1.9840938541921237e-06,31.703999999999997,0.01171893055416438,7.638890961070516e-07,52.40833333333334,1.3326817157729582,5.859999999999999,0.0020978130690682156
S081,11450.0,11479.984375,N2,0.027395833333333338,6.967769175339836,-18.69,13.0,31.69,1.62,0.0,1125.0,1125.0,0.4469029225930641,0.4982608642958915,0.40288537236277133,65.20080984127388,0.3942558924209317,66.2268827591938,0.25729166666666664,146,0.569288125,0.0019675206206564563,1.7693856796293724e-06,31.687333333333335,0.01526069752301247,-1.4444448362751526e-05,55.904333333333334,1.5566046026171485,4.799999999999997,-0.0009275349738321888
S081,11480.0,11509.984375,N2,-0.08638541666666662,7.493216137321855,-19.17,15.66,34.83,1.33,0.0,1125.0,1125.0,0.4779876799899995,0.4931815908944921,0.4743004717476043,65.14099740963631,0.3700200144456655,66.2268827591938,0.165625,98,0.5726499250000001,0.002092390710656503,2.1124226650452005e-06,31.676000000000005,0.011718930554164907,-2.43055621488605e-06,62.79966666666666,2.303370694342437,8.030000000000001,0.0019739241465723057
S081,11510.0,11539.984375,N2,0.08675520833333336,7.314545236951534,-20.48,14.06,34.54,1.395,0.0,1125.0,1125.0,0.4904812245104009,0.4919093680637611,0.4734612778224025,65.12206056546118,0.3630579041146704,66.2268827591938,0.15729166666666666,105,0.5757983083333333,0.001789839186425392,9.177148756822085e-07,31.672000000000004,0.014000000000000816,-2.9861119211462174e-06,59.00966666666667,1.2078258244557534,4.729999999999997,-0.0012026044928940126
S081,11540.0,11569.984375,N2,0.06055729166666668,7.508801894266665,-19.56,14.15,33.71,1.42,0.0,1125.0,1125.0,0.4886193968013914,0.4958114490968875,0.4423540248865532,65.1320739924712,0.37834610159103593,65.76473218982953,0.17083333333333334,112,0.5802489000000001,0.0019929405594079535,1.9629740567963342e-06,31.66066666666667,0.012364824660662296,-2.361111751603886e-06,49.485,3.174428820013663,8.479999999999997,-0.005396841741764796
S081,11570.0,11599.984375,N2,-0.08260416666666667,7.219776484708465,-20.03,12.66,32.69,1.39,0.0,1125.0,1125.0,0.4826312699238761,0.499816589624523,0.4243241664858235,65.12485542659564,0.3764934683131,66.2268827591938,0.16770833333333332,110,0.5837387583333334,0.0021339481561799723,2.250634074065236e-06,31.65133333333333,0.012578641509409768,-8.333335593895888e-06,47.05266666666667,0.5600234122090104,1.7199999999999989,-0.00021402783583654406
S081,11600.0,11629.984375,N2,-0.05529166666666664,7.5117834668226795,-21.42,12.65,34.07,1.36,0.0,1125.0,1125.0,0.4880505705098602,0.4963364044565831,0.44031707128373854,65.1451363597794,0.38562762576011234,66.2268827591938,0.18645833333333334,112,0.5873889083333332,0.0017477522469152341,1.5486972517082485e-06,31.636666666666663,0.013984117975601722,-7.916668814200355e-06,45.315333333333335,1.5650148739087295,5.520000000000003,0.0017443754731921322
S081,11630.0,11659.984375,N2,-0.03899479166666666,7.5364525101318645,-20.38,12.44,32.82,1.0550000000000002,0.0,1125.0,1125.0,0.481588084708637,0.4976986970603355,0.45299447353754274,65.13873330240112,0.39211872180764673,66.2268827591938,0.190625,110,0.5898862416666667,0.0022680542578600686,2.520186664547148e-06,31.623333333333335,0.01299572579307834,-2.9166674578632917e-06,54.31266666666667,1.9911871389254754,8.119999999999997,0.003425834262650353
S081,11660.0,11689.984375,N2,-0.024145833333333356,7.340249413875479,-21.32,14.43,35.75,1.42,0.0,1125.0,1125.0,0.4850365106532359,0.4975973086716026,0.4541284387581214,65.13080333984483,0.3795804347660709,66.2268827591938,0.175,119,0.5933974333333334,0.0018526956384924376,1.675522155903376e-06,31.613333333333337,0.011642832797715072,4.861112429772145e-07,59.550999999999995,0.6570304406951017,2.6400000000000006,0.0002455903443984237
S081,11690.0,11719.984375,N2,0.030885416666666634,7.485247612484439,-19.14,12.86,32.0,1.5950000000000002,0.0,1125.0,1125.0,0.49515775930224726,0.4999728725279891,0.4324058584118499,65.09481702315348,0.3766696901788164,66.2268827591938,0.15208333333333332,105,0.5971436583333333,0.001919983921355565,1.8238036631411907e-06,31.606,0.010832051206181048,-6.805557401681007e-06,55.669666666666664,1.6764714598094284,6.020000000000003,-0.0027039937890608145
S081,11720.0,11749.984375,N2,0.05786979166666666,7.424687268506946,-18.38,13.1,31.479999999999997,1.14,0.0,1125.0,1125.0,0.4766407608782064,0.499995659703384,0.4278689420806589,65.12012434331889,0.39873405174365806,66.2268827591938,0.1875,107,0.6009430749999999,0.0018630855015381465,1.9449239216915953e-06,31.58933333333333,0.009637888196533769,-4.861112429772151e-07,51.715333333333334,0.5924566557047769,2.0600000000000023,-0.0010155558310427056
S081,11750.0,11779.984375,N2,-0.039338541666666726,7.55274350194834,-20.48,14.37,34.85,1.3,0.0,1125.0,1125.0,0.48880589869315433,0.5060302592374184,0.40405926408002185,65.11448390639258,0.39768363155773107,65.76473218982953,0.18958333333333333,113,0.60346175,0.002230450642994221,2.3135010616051067e-06,31.584666666666656,0.008844332774280879,-5.277779209466902e-06,54.333666666666666,1.6947693713960683,5.380000000000003,0.0023578825840610317
S081,11780.0,11809.984375,N2,0.0328177083333333,7.496449654676744,-20.63,13.94,34.57,1.26,0.0,1125.0,1125.0,0.49772812853058207,0.4992083576774332,0.4194167059904611,65.11525654830137,0.3876075965407508,66.2268827591938,0.16979166666666667,116,0.6063327833333332,0.001844527180532246,1.7106141793115771e-06,31.575333333333326,0.011469767022723258,-5.0000013563370656e-06,57.71666666666667,2.6426506054002337,7.219999999999999,0.004228820591585447
S081,11810.0,11839.984375,N3,0.0005989583333332696,7.318956786546308,-19.02,12.37,31.39,1.38,0.0,1125.0,1125.0,0.4914370932954355,0.4998914812792428,0.35732507132472835,65.12487682411887,0.40492012794034216,66.2268827591938,0.20104166666666667,115,0.6105483500000001,0.0020715402025626613,2.4762550120049507e-06,31.563333333333336,0.014907119849998282,-4.166667796947555e-06,54.717999999999996,1.5139295448159622,6.400000000000006,-0.0010559030642098136
S081,11840.0,11869.984375,N2,0.06704166666666665,7.380597219112007,-20.91,14.26,35.17,1.6,0.0,1125.0,1125.0,0.4911974720997882,0.499995659703384,0.39692694323249067,65.12606638156745,0.3974640407240265,66.2268827591938,0.19375,122,0.61444395,0.0018909510387192274,9.441907943225853e-07,31.556666666666665,0.013984117975601722,-7.083335254810844e-06,52.50933333333334,2.2550593980844247,5.730000000000004,-0.0038050010321725902
S081,11870.0,11899.984375,N2,-0.05349479166666667,7.482918466481814,-19.5,12.93,32.43,1.27,0.0,1125.0,1125.0,0.49623583103198016,0.4999305507323548,0.40906476794634855,65.10512747814965,0.40114551044541297,66.2268827591938,0.17708333333333334,103,0.6177204166666665,0.0015701110713541566,9.02153022502449e-07,31.550666666666668,0.013148721948877064,5.208334746184443e-06,50.50833333333333,0.3242641241676643,1.0800000000000054,0.00027711813072865997
S081,11900.0,11929.984375,N2,0.010890625000000006,7.716958914227186,-21.07,13.8,34.870000000000005,1.29,0.0,1125.0,1125.0,0.4966806048799257,0.4997221450188317,0.4065103332532479,65.0925678061255,0.3970093260288389,66.2268827591938,0.17291666666666666,112,0.6210502833333335,0.002125040753269345,2.4664707211563293e-06,31.54533333333334,0.008459051693632834,-4.9305568930546074e-06,55.033,2.2489807320947266,8.61,0.0037044801715712264
S081,11930.0,11959.984375,N2,-0.02080729166666669,7.751770075034271,-20.23,12.73,32.96,1.56,0.0,1125.0,1125.0,0.4920979305624936,0.49881695979086366,0.4019470300058896,65.09014225436383,0.399799499768727,66.2268827591938,0.178125,108,0.6245935999999997,0.0019907926202060028,1.6519848231295674e-06,31.535333333333323,0.011469767022723258,-4.444445650077392e-06,67.11066666666666,3.6967615857967115,12.649999999999999,0.006650418470708134
S081,11960.0,11989.984375,N3,-0.03591666666666669,7.661296798772965,-19.64,14.48,34.120000000000005,1.71,0.0,1125.0,1125.0,0.4942540939385328,0.49975579974123363,0.3958114029012639,65.11439337464783,0.3967897658525559,66.2268827591938,0.17708333333333334,108,0.6277740333333334,0.0016023815709402395,1.0060974951436366e-06,31.534666666666666,0.01431394036905562,-8.958335763437244e-06,76.58533333333331,2.053424348632193,6.179999999999993,0.0021505561389312403
S081,11990.0,12019.984375,N2,-0.007770833333333312,8.213834881972973,-22.97,14.79,37.76,1.505,0.0,1125.0,1125.0,0.4961264889678393,0.4988876515698588,0.3840346844868167,65.09381086255198,0.39785347844431657,66.2268827591938,0.16979166666666667,99,0.6303994333333331,0.0022549243584258404,2.3347423868116194e-06,31.522666666666662,0.014126413400278034,-2.7083340680159487e-06,67.08233333333332,4.2861005458212125,14.269999999999996,-0.00771649514878883
S081,12020.0,12049.984375,N3,0.02691145833333331,8.740831082511187,-24.09,14.09,38.18,1.8050000000000002,0.0,1125.0,1125.0,0.49454928273687304,0.4982608642958915,0.3763632627602693,65.09927361872708,0.4122996249955959,66.2268827591938,0.18645833333333334,105,0.6537618416666665,0.015255693531157381,2.5932639196136926e-05,31.517999999999994,0.012220201853215856,2.50000067816841e-06,57.10033333333333,1.5948301546629415,5.380000000000003,-0.0014262156646635373
S081,12050.0,12079.984375,N2,-0.12366666666666667,9.814065166750332,-27.56,16.2,43.76,1.42,0.0,1125.0,1125.0,0.504407655902776,0.49960813637345375,0.3828674138617992,65.09858950363305,0.4065849285750337,66.2268827591938,0.175,105,1.0790285583333334,0.28680582208063105,0.0005108110832278328,31.51333333333333,0.013743685418726047,-3.541667627405571e-06,62.54099999999999,2.987403945457214,9.200000000000003,0.0052212166941234504
S081,12080.0,12109.984375,N2,0.03416666666666674,12.319010196530492,-29.97,21.5,51.47,1.275,0.0,1125.0,1125.0,0.4957983180913608,0.49682586235018,0.3739554317436178,65.08219271619083,0.39113030982468316,66.2268827591938,0.16875,97,2.263457508333333,0.3970065514941577,0.0006959998066405725,31.51466666666666,0.014313940369056642,5.902779379009321e-06,65.88000000000001,1.3924774085540257,4.719999999999999,-0.0022932645109767016
S081,12110.0,12139.984375,N2,-0.01221874999999996,12.181691225721293,-31.6,20.95,52.55,1.745,0.0,1125.0,1125.0,0.5007795572210946,0.49705731281434967,0.3735373675156952,65.08920689042706,0.3970470692273845,66.2268827591938,0.18020833333333333,99,3.769915816666667,0.5191350500735813,0.0009188853764337501,31.519999999999992,0.01125462867742283,-6.319446158704126e-06,68.56266666666667,1.6357219269246903,5.409999999999997,0.0024317367707619277
S081,12140.0,12169.984375,N2,-0.004442708333333437,12.91136958596025,-34.83,23.68,58.51,1.395,0.0,1125.0,1125.0,0.5052459178459535,0.49986868935473666,0.40589728277812687,65.08391791140706,0.3969730904749646,66.2268827591938,0.16770833333333332,107,5.442340675,0.5211467577359753,0.0009074572854430569,31.515333333333327,0.012578641509409015,4.027778870383106e-06,72.10799999999999,2.0673354831763526,5.360000000000014,0.003401042589258515
S081,12170.0,12199.984375,N2,-0.016359375,13.498643841065403,-33.74,23.83,57.57,2.34,0.0,1125.0,1125.0,0.5040967151885528,0.4990224819584785,0.37562303567613575,65.05828035454462,0.3891109218132599,66.2268827591938,0.146875,90,6.972610208333333,0.36383910456026425,0.0006190730392450735,31.529333333333327,0.009637888196533767,3.472223164122955e-07,69.97433333333333,3.8455625365116903,11.690000000000005,-0.006800592122556458
S081,12200.0,12229.984375,N2,-0.08307291666666666,13.203992346654722,-34.91,22.62,57.53,1.6349999999999998,0.0,1125.0,1125.0,0.5013480092599241,0.4999609359740019,0.3622709405610668,65.08237926185207,0.4025352362820569,66.2268827591938,0.16354166666666667,100,8.288190275,0.30877747257177957,0.00048044433193476874,31.533999999999992,0.013063945294843338,6.944446328245926e-07,67.41066666666667,2.026183495035817,6.759999999999998,0.0033533342429834657
S081,12230.0,12259.984375,N2,0.11858854166666678,12.592442427465585,-30.97,21.0,51.97,2.57,0.0,1125.0,1125.0,0.4990224819584785,0.496462092586131,0.3240755414980005,65.04851872446571,0.40389159374885697,66.2268827591938,0.14895833333333333,97,9.281823258333333,0.3685249715463321,0.0006411032088496116,31.528666666666656,0.01359738536958047,2.0833338984737777e-06,68.84733333333334,0.8353798869709245,3.1299999999999955,-0.00021569450295532238
S081,12260.0,12289.984375,N2,0.13560416666666653,34.51013083968942,-197.21,224.64,421.85,4.575,0.0,1125.0,1125.0,1.5033758308849086,0.8883871739468853,1.9374316744224958,65.06313156576734,0.5116908464276347,69.92853494818836,0.07083333333333333,41,10.698717100000001,0.3424079296628122,0.0005635167275164733,31.526666666666657,0.009067647005823435,-1.0416669492368897e-06,68.50233333333333,3.164773486716264,9.519999999999996,-0.005164758345474809
S081,12290.0,12319.984375,N2,-0.09590104166666676,17.653073641147895,-44.15,23.85,68.0,3.97,0.0,1125.0,1125.0,0.26866923851126356,0.43886196735293537,0.5009712788396379,65.0157790412218,0.3036867844092913,66.2117814289874,0.05416666666666667,44,11.703603249999999,0.363509707665725,0.0006288961988108178,31.517999999999994,0.016812693617225084,-1.1666669831453848e-05,56.25266666666666,2.0015176464095665,8.870000000000005,-0.003423820373215162
S081,12320.0,12349.984375,N2,-0.08346354166666678,24.44277319350846,-123.46,134.06,257.52,3.625,0.0,1125.0,1125.0,0.7009387306795557,0.5698583142008976,0.6435443306840296,65.08795542629383,0.4091862959426502,68.24954212300622,0.06770833333333333,44,12.459663683333334,0.12222498436626243,0.00017483835385155027,31.50333333333333,0.01299572579307992,-8.333335593896958e-07,44.67133333333333,3.214621526020685,10.14,-0.005502918159428754
S081,12350.0,12379.984375,N2,0.21746354166666662,15.741346891285886,-36.65,23.86,60.51,4.015000000000001,0.0,1125.0,1125.0,0.49734974699232865,0.19071036340045427,0.2622001428881296,65.03272263090011,0.26455096373523085,65.99242380758567,0.06041666666666667,48,12.760908966666667,0.0625979116431389,3.910811347333794e-05,31.491333333333337,0.01359738536958177,-1.652778226122666e-05,41.227,0.09967112587571782,0.35999999999999943,-1.9479171950731568e-05
S081,12380.0,12409.984375,W,0.04146874999999994,15.451403989236926,-39.06,21.33,60.39,4.074999999999999,0.0,1125.0,1125.0,0.9298151464658027,0.46666201634587745,0.4754372530599829,65.08018689590712,0.6910911134828858,72.51896303726357,0.027083333333333334,18,12.633831416666668,0.4424723586025004,0.00018194343520600977,31.46733333333334,0.011234866364234906,-1.222222553771283e-05,39.74433333333333,0.6185072531686452,1.75,-0.0010476044508475617
S081,12410.0,12439.984375,N1,-0.06368229166666636,49.31955072358369,-290.85,174.99,465.84000000000003,0.905,0.0,1125.0,1125.0,5.499999901357322,10.84953836063493,6.71642757018607,65.17438472945042,2.287782799476309,81.88406438373708,0.05520833333333333,20,13.737633283333334,0.5616186689607725,-0.0008764792182289547,31.45133333333333,0.01543444920371997,-1.1388891978323319e-05,49.962333333333326,7.352663319429831,24.03,0.013219413308217584
S081,12440.0,12469.984375,N1,-0.19218749999999998,8.898312393033322,-25.33,15.44,40.769999999999996,1.18,0.0,1125.0,1125.0,0.4354066984504895,0.4934455372823721,0.4030913530316532,65.1076148050256,0.3673591345614509,65.58200972827838,0.334375,139,13.125219591666667,0.0880751046942793,-9.677695355277604e-05,31.430000000000003,0.014605934866804119,-6.944446328245926e-06,74.19566666666667,4.354216104982491,13.829999999999998,0.007117467208514325
S081,12470.0,12499.984375,N2,0.22773958333333333,8.799062118279984,-24.46,15.23,39.69,1.4649999999999999,0.0,1125.0,1125.0,0.4470376549358628,0.3518906647391425,0.382617935250035,65.26693628429891,0.35786831088363347,65.58200972827838,0.0,0,12.653293116666665,0.23682156576584482,-0.00038575338459021923,31.419333333333338,0.015260697523012472,-1.6388893334660382e-05,68.61466666666666,6.738951814307294,21.96,-0.012106183839568099
S081,12500.0,12529.984375,N2,-0.13211979166666665,8.567281994127423,-23.85,15.71,39.56,1.14,0.0,1125.0,1125.0,0.42425895361467886,0.31598061649411346,0.3560473960919935,65.32298567609827,0.3419318064498119,65.58200972827838,0.0,0,11.887964308333332,0.27138269076244204,-0.0004686715006161838,31.406666666666673,0.010434983894998797,2.152778361756237e-06,47.48966666666667,3.389827412846986,10.600000000000001,-0.005397536186397619
S081,12530.0,12559.984375,N2,0.09858333333333327,8.715373562067715,-24.39,14.85,39.24,1.48,0.0,1125.0,1125.0,0.4801213315981238,0.22838645595544604,0.42809331796804406,65.27071807722001,0.35506339912820856,65.58200972827838,0.0,0,10.975629883333333,0.2748857149257118,-0.0004941879717306779,31.405333333333335,0.012310790208412662,-7.43055757122314e-06,44.779666666666664,0.3751220542110998,1.0400000000000063,0.000549409871259187
S081,12560.0,12589.984375,N2,0.001276041666666631,8.082151308777117,-22.27,13.4,35.67,1.745,0.0,1125.0,1125.0,0.4721359194012767,0.20912350152216008,0.42555111326373,65.2916287976239,0.3609602285907972,65.58200972827838,0.0,0,10.051423641666668,0.292771767172508,-0.0005273508342423051,31.392666666666667,0.014360439485691705,-9.722224859544295e-06,43.37866666666667,0.8347803436966051,2.530000000000001,-0.0013772920402810433
S081,12590.0,12619.984375,N2,0.021197916666666705,7.793599191430255,-22.57,13.93,36.5,1.37,0.0,1125.0,1125.0,0.486447180457447,0.16532992583014122,0.448589610767892,65.26542756502457,0.36085281560921023,65.58200972827838,0.0,0,9.185104683333334,0.23113063726177252,-0.00041668650843275503,31.373333333333335,0.01273664878302826,3.472223164122968e-07,42.57066666666666,0.598258212554486,1.529999999999994,-0.0009744447087794888
S081,12620.0,12649.984375,N2,-0.11539583333333332,8.301885927154302,-24.85,14.57,39.42,1.585,0.0,1125.0,1125.0,0.502839161384853,0.21120674688692012,0.4643497170476388,65.23548057197367,0.3648509425983788,65.58200972827838,0.0,0,8.391585883333333,0.19700138561370506,-0.00034495326935581305,31.36066666666667,0.01611072796479287,-6.94444632824573e-06,43.303999999999995,0.8907622204232355,2.3799999999999955,0.0015527087545325385
S081,12650.0,12679.984375,N2,0.052369791666666665,8.503108387446957,-22.88,15.01,37.89,1.41,0.0,1125.0,1125.0,0.4998914812792429,0.13653385314842453,0.4564164460470528,65.22187272191935,0.36375629994937336,65.58200972827838,0.0,0,7.7867471083333335,0.22461954553847993,-0.00040437106694093597,31.349333333333334,0.015040685563572206,-7.708335424353631e-06,44.212999999999994,0.19719956051337148,0.6700000000000017,5.024306918485998e-05
S081,12680.0,12709.984375,N2,-0.05460416666666668,8.017871934880807,-24.62,14.76,39.38,1.275,0.0,1125.0,1125.0,0.49749371855330987,0.12031137264984093,0.4600535898735663,65.18943525646075,0.3565308921344207,65.58200972827838,0.3958333333333333,124,7.073552191666667,0.17946551547448214,-0.00032278889333466065,31.335333333333327,0.012578641509409969,-1.2083336611149378e-05,42.63766666666666,0.7626606206054053,2.1000000000000014,-0.001318993413355418
S081,12710.0,12739.984375,N2,-0.04972916666666663,8.494573116210685,-25.32,15.96,41.28,1.2349999999999999,0.0,1125.0,1125.0,0.49789487400008003,0.10691682092740236,0.4622359888357893,65.1934400779213,0.36049152530858836,65.58200972827838,0.41041666666666665,109,6.486925858333334,0.16689681893140326,-0.0003007225097446044,31.320666666666664,0.013399834161494494,-1.597222655496579e-05,41.794333333333334,0.19759695229318516,0.5700000000000003,-0.0003388542585867664
S081,12740.0,12769.984375,N2,0.18091145833333336,7.951971306464017,-23.02,14.83,37.85,1.775,0.0,1125.0,1125.0,0.4841229182759271,0.1286785130556855,0.46639570816766984,65.1471006265997,0.3536546540941938,65.88626564011653,0.3375,109,5.9518029750000006,0.14793982118429452,-0.0002667715218021706,31.297333333333334,0.013148721948877068,-7.847224350917895e-06,42.342999999999996,0.7575009350929321,1.9499999999999957,0.001238021169168069
S081,12770.0,12799.984375,N2,-0.10881250000000002,8.611969616364023,-26.07,15.76,41.83,1.4249999999999998,0.0,1125.0,1125.0,0.48330527037784315,0.09126331714087298,0.47761978573151903,65.13938508143274,0.3580775700223834,65.58200972827838,0.340625,105,5.490604533333334,0.12085342062238959,-0.00021789219235356775,31.284666666666666,0.01627540748764459,-1.777778260030957e-05,42.92033333333334,0.2868389017472269,0.8500000000000014,0.0005063543040240616
S081,12800.0,12829.984375,N2,-0.02620833333333342,7.793854276122345,-22.31,12.94,35.25,1.3050000000000002,0.0,1125.0,1125.0,0.4732137007708274,0.10699797992641419,0.47177151183067423,65.12945714270744,0.34859809174867046,65.88626564011653,0.31354166666666666,111,5.106417266666667,0.09933305578647468,-0.0001789167195412108,31.249333333333333,0.018961950204436785,-2.506945124496779e-05,44.53566666666667,0.5517105722709642,1.8499999999999943,0.0005576737623898002
S081,12830.0,12859.984375,N2,0.0006562499999999804,8.062349707033466,-24.42,15.27,39.69,1.45,0.0,1125.0,1125.0,0.4459878528957438,0.09681898021852718,0.4763094159495718,65.0946085445752,0.3326987053168466,65.58200972827838,0.25625,105,4.765227525,0.09775826435831078,-0.00017627391565590162,31.232666666666667,0.016110727964792418,-1.777778260030957e-05,46.65166666666667,0.8580912279912641,2.8999999999999986,0.00151517402212837
S081,12860.0,12889.984375,N2,0.043083333333333404,8.112222695140682,-23.71,14.24,37.95,1.67,0.0,1125.0,1125.0,0.4405535797121869,0.1019769854210035,0.4890289414293959,65.07486777363185,0.3355978411731782,65.58200972827838,0.24479166666666666,97,4.450709033333334,0.08401378702152933,-0.00015145886704070829,31.204666666666665,0.01543444920371997,-1.0972225198628562e-05,46.46833333333334,0.96582635890493,2.6700000000000017,-0.0015410768069327254
S081,12890.0,12919.984375,N2,-0.15319791666666666,7.8638637650327885,-22.58,15.12,37.699999999999996,1.1749999999999998,0.0,1125.0,1125.0,0.4405535797121869,0.08538490263051322,0.4838527650679377,65.08097008260094,0.3348503759422325,65.58200972827838,0.24583333333333332,95,4.158651975,0.07904399223296087,-0.00014237547373466633,31.182000000000006,0.015143755588800404,-4.72222350320723e-06,44.032,0.7396954328190307,2.519999999999996,-0.0013271531377911073
S081,12920.0,12949.984375,N2,0.0023489583333333878,8.57338264953288,-25.63,15.08,40.71,1.68,0.0,1125.0,1125.0,0.4083426338226542,0.13257842935619488,0.49031859682138196,65.05303689138422,0.32322521797823245,65.88626564011653,0.20416666666666666,105,3.9212018083333335,0.061177815697807746,-0.00011024167812545521,31.162,0.0160000000000012,-1.138889197832455e-05,43.599666666666664,0.3442913817619541,1.0500000000000043,-4.17014002011186e-05
S081,12950.0,12979.984375,N2,0.09198437499999995,8.403409586402367,-25.03,16.26,41.290000000000006,1.47,0.0,1125.0,1125.0,0.42425895361467886,0.16039975560212746,0.48543790189603264,65.07813618850295,0.33031333204967006,65.88626564011653,0.24270833333333333,126,3.7145214083333333,0.05566498104052132,-0.00010029454652087304,31.141333333333332,0.016878651868229996,-6.7361129383987695e-06,42.811666666666675,0.06836584592388832,0.30000000000000426,-7.524307596654585e-05
S081,12980.0,13009.984375,N2,0.11683854166666668,8.64583102539973,-26.01,15.61,41.620000000000005,1.455,0.0,1125.0,1125.0,0.4041398186959008,0.13238185901860655,0.4952508833914383,65.03869100570975,0.3274353836674777,65.88626564011653,0.20208333333333334,97,3.5240510916666663,0.0528643292974251,-9.510237063323859e-05,31.13466666666666,0.018390818965511466,-1.97916720355009e-05,43.462999999999994,0.8772348602284339,2.460000000000001,0.0015280906922989072
S081,13010.0,13039.984375,N2,-0.02714062500000011,8.592727775628525,-26.52,15.72,42.24,1.53,0.0,1125.0,1125.0,2.1425895790297,1.8893407024490199,3.555116007444608,65.02624951725532,1.6527750561767804,90.87904048789248,0.021875,8,3.3830215249999998,0.0555383294383201,-1.8614339467865542e-05,31.09533333333333,0.014544949486180642,-8.333335593895109e-06,45.11266666666667,0.25128912077967563,0.6899999999999977,-0.00029319452397854977
S081,13040.0,13069.984375,N2,-0.15131250000000024,53.91662869021959,-222.62,304.73,527.35,-0.10500000000000001,0.0,1125.0,1125.0,3.5206675256815845,2.119329648667762,3.647021235047705,65.05982767983603,1.7882921843784647,79.56758133813042,0.04375,12,4.375263899999999,0.29062049605308293,0.00043591328187751787,31.083999999999993,0.01380821011813836,3.402778700840503e-06,50.571333333333335,3.1882813900630262,10.219999999999999,0.005735279333571868
S081,13070.0,13099.984375,N2,0.0812135416666666,16.29154626882912,-85.24,156.27,241.51,0.5700000000000001,0.0,1125.0,1125.0,0.503502274007333,0.3845767875932654,0.346804609975127,64.89332750138479,0.27914297056918963,65.93178292750773,0.121875,63,5.1293883000000005,0.3959776455459449,0.0006711310444691417,31.082666666666665,0.015040685563570983,-6.180557232138875e-06,57.913666666666664,1.5912835140923896,4.560000000000002,0.0028391327146084847
S081,13100.0,13129.984375,N2,0.09585416666666671,9.241967294831369,-35.6,32.74,68.34,1.78,0.0,1125.0,1125.0,0.3517673014579382,0.1849097706014717,0.12849286620924397,64.89933515731698,0.19160585823277493,65.76473218982953,0.04791666666666667,35,6.231674858333333,0.13617076377709814,6.477156900270425e-05,31.063333333333333,0.016599866130651286,-1.9444449719088593e-06,57.77166666666666,1.5883116472811278,4.530000000000001,-0.0023400353569974397
S081,13130.0,13159.984375,N2,-0.09339062500000003,7.5255341043506965,-20.6,12.43,33.03,0.91,0.0,1125.0,1125.0,0.2443013706924753,0.09668440031302304,0.2242827108249764,64.93104039527738,0.14286305864936366,65.39877674696982,0.06666666666666667,48,6.451296,0.16168571337510518,5.896817181211266e-05,31.042666666666666,0.014126413400277761,-4.51389011335985e-06,62.11299999999999,1.4133085296565648,5.090000000000003,0.002133090856415706
S081,13160.0,13189.984375,N2,0.01136458333333336,7.471230641907596,-23.99,13.74,37.73,0.995,0.0,1125.0,1125.0,0.28843259069494903,0.11110243021644485,0.22219509383022437,64.92141329069054,0.17288147968742934,65.71149062378664,0.07291666666666667,56,6.147414575,0.07597297790164853,-0.00011772005168187164,31.02333333333333,0.01659986613065176,-1.0972225198628684e-05,62.263999999999996,1.1024203674944808,3.549999999999997,-0.0015969448776434665
S081,13190.0,13219.984375,N2,-0.017484374999999996,6.633950092356804,-21.62,12.25,33.870000000000005,0.585,0.0,1125.0,1125.0,0.22817969283488446,0.1529193630552463,0.2494438257849294,64.93028366897319,0.17360203534497462,65.71149062378664,0.08020833333333334,63,6.0642108,0.07224786466505424,-8.130998950466288e-05,31.01733333333333,0.012092238098144713,-3.1250008477109994e-06,55.88,1.4399583327304994,5.43,-0.0018710421742193398
S081,13220.0,13249.984375,N2,0.015291666666666719,7.250433781443509,-22.22,18.31,40.53,1.14,0.0,1125.0,1125.0,0.29119008682760245,0.162326296048696,0.33071891388307384,64.93666767627862,0.2041839870159222,65.71149062378664,0.13854166666666667,89,6.197807375,0.15733878034992216,-6.923362186241911e-05,31.01333333333333,0.013743685418726047,5.6250015258796436e-06,54.348333333333336,0.5249449706609465,1.740000000000002,0.0007433682572071008
S081,13250.0,13279.984375,N2,-0.03670833333333328,6.978389140644414,-21.04,13.85,34.89,0.82,0.0,1125.0,1125.0,0.23713422125220326,0.19982631347136331,0.33653249956562725,64.93951956384,0.2127372815895386,65.71149062378664,0.13541666666666666,85,5.9799689166666665,0.0501705056632851,-7.201738238318749e-05,31.00466666666666,0.011469767022724677,2.777778531297384e-07,54.78766666666666,0.2935720619465607,0.9499999999999957,0.00020211811038360185
S081,13280.0,13309.984375,N2,0.14338541666666657,6.705642229169452,-21.81,13.81,35.62,1.22,0.0,1125.0,1125.0,0.23270003342405338,0.20453835214941965,0.38085561340735,64.95224668823934,0.2151165965282076,65.71149062378664,0.175,109,5.848294658333333,0.07401195453522987,-0.00011200498329128239,30.987333333333336,0.015260697523013702,-7.083335254811671e-06,55.114333333333335,0.46175522616304954,2.3500000000000014,-8.506946752101647e-06
S081,13310.0,13339.984375,N2,-0.14189583333333333,6.513478993081653,-21.06,13.14,34.2,0.92,0.0,1125.0,1125.0,0.2188962804554299,0.23437268517375393,0.3919712911114225,64.95741160166988,0.2288806339114041,65.71149062378664,0.18854166666666666,121,5.543060791666666,0.07977434967779388,-0.00013439885177920247,30.976000000000006,0.015620499351813493,-1.2291670000995832e-05,52.64866666666667,1.0928456229292203,3.3499999999999943,-0.0017624310336455712
S081,13340.0,13369.984375,N2,0.001890625000000042,7.243543476960737,-21.11,15.3,36.41,0.635,0.0,1125.0,1125.0,0.2153984316911337,0.24206145913796356,0.4249068014642217,64.96392850781093,0.23379370970787422,65.71149062378664,0.21979166666666666,103,5.347362524999999,0.046116528533697916,-4.033497035996375e-05,30.967333333333336,0.012364824660660675,4.027778870382637e-06,49.343333333333334,1.7026887234280046,4.769999999999996,-0.0027458340781884964
S081,13370.0,13399.984375,N2,0.0031562499999999716,8.01376229244121,-26.56,17.64,44.2,1.185,0.0,1125.0,1125.0,0.3274944337949374,0.25464435984329203,0.4766407608782064,64.96368820386058,0.2840304295680443,65.71149062378664,0.028125,19,5.201990749999999,0.07569179469590809,-0.0001053627095710475,30.966,0.014966629547095793,-1.111111412519385e-06,51.16733333333333,1.7313403927464854,6.399999999999999,0.003054792495332165
S081,13400.0,13429.984375,N2,0.029385416666666647,7.180118175776821,-21.27,13.71,34.980000000000004,0.675,0.0,1125.0,1125.0,0.28366823038640676,0.3318963165365888,0.48924966466518915,64.97183199806217,0.3020846717728142,65.71149062378664,0.04583333333333333,29,5.115948108333333,0.05781767890688738,-9.049018730745143e-06,30.962,0.011075498483890531,3.3333342375580447e-06,60.02966666666667,1.8739876971017952,6.130000000000003,0.0026652437785492024
S081,13430.0,13459.984375,N2,-0.05147916666666664,6.921153910866258,-23.42,13.16,36.58,0.815,0.0,1125.0,1125.0,0.24455662474840734,0.35083605501715465,0.4766407608782064,65.03626103957448,0.3084909382715592,65.71149062378664,0.03333333333333333,25,4.981160849999999,0.03836374710662184,-4.222962994510362e-05,30.96,0.01437590576856491,-8.125002204047733e-06,59.059,0.9468451122895802,3.4000000000000057,-0.0012085767167363064
S081,13460.0,13489.984375,N2,-0.08927083333333335,7.051008452518167,-23.14,13.02,36.16,0.845,0.0,1125.0,1125.0,0.19842041155642792,0.3736070773739289,0.4061164310337068,65.0486366543006,0.32092743226939024,65.71149062378664,0.020833333333333332,18,4.882103375,0.05718210681528245,-5.735654550687481e-06,30.954666666666665,0.013349989596333572,2.8472229945808298e-06,53.31266666666668,1.5443594860725345,6.100000000000001,-0.0023472923034104564
S081,13490.0,13519.984375,N2,0.2693333333333333,6.729624198067989,-22.45,12.67,35.12,1.245,0.0,1125.0,1125.0,0.2009498926971597,0.4007791348493027,0.35910164724706506,65.03938328781,0.3314687637515873,65.71149062378664,0.014583333333333334,11,4.7612893000000005,0.03470672471260672,-3.4207204591798154e-05,30.954666666666665,0.01431394036905562,-2.5694451414509918e-06,50.32966666666666,0.8103023441215566,2.6799999999999997,-0.0012339933902976866
S081,13520.0,13549.984375,N2,-0.03375520833333336,7.087074400248693,-20.49,12.61,33.099999999999994,1.415,0.0,1125.0,1125.0,0.24852865640717484,0.41689446897732874,0.3013838885273878,65.0419586565385,0.35336117661546,65.71149062378664,0.029166666666666667,23,4.678544475000001,0.041938884638833364,-5.639602028971901e-05,30.947333333333333,0.012364824660660675,-4.166667796947555e-06,47.226,0.5829213783464579,1.8500000000000014,-0.0009159030262323757
S081,13550.0,13579.984375,N1,-0.2153854166666665,8.358581765005791,-35.87,24.0,59.87,0.995,0.0,1125.0,1125.0,0.5332641556697977,0.5016368606178732,0.5463648414114469,64.95824081924702,0.3734296034197683,66.3023378170031,0.06666666666666667,50,4.854802808333333,0.14489681110818692,6.852079267599631e-05,30.936666666666667,0.011925695879998624,-2.7777785312983704e-06,46.37233333333333,0.7846684367014873,3.0900000000000034,9.690974851067399e-05
S081,13580.0,13609.984375,N2,0.16154166666666667,6.149886255582068,-17.73,13.02,30.75,0.69,0.0,1125.0,1125.0,0.3154289820361048,0.49093231705659346,0.4999305507323548,64.87402708416676,0.3538265339566894,65.57438524302,0.309375,132,4.855005608333332,0.10210198060552791,5.997235155499984e-05,30.934666666666665,0.012310790208412664,-1.4583337289316442e-06,49.893666666666675,0.4843103917484689,2.1099999999999994,0.00059434043900294
S081,13610.0,13639.984375,N2,-0.08783333333333326,6.688189566732955,-20.32,13.19,33.51,0.705,0.0,1125.0,1125.0,0.3041220715025465,0.47981726664950275,0.48543790189603264,64.87593521370943,0.3644472708688704,65.57438524302,0.271875,117,4.844930649999999,0.0526257136031823,1.2188393063257624e-05,30.94333333333333,0.01074967699773117,6.666668475116089e-06,53.61266666666667,1.339315579772827,4.1299999999999955,0.0010668752894084446
S081,13640.0,13669.984375,N1,0.3624583333333333,7.642239248245932,-19.94,56.35,76.29,1.1,0.0,1125.0,1125.0,0.4873296978176069,0.6715446539301926,0.7300582346920461,64.9033389035556,0.4405668737047412,67.86015030929418,0.16354166666666667,113,5.02416105,0.29423005550492426,0.00039070220190489416,30.942,0.013266499161421317,-8.194446667330191e-06,49.68966666666667,0.5056578773131983,2.6000000000000014,-0.000789409936363373
S081,13670.0,13699.984375,N2,-0.17713541666666668,40.715392971393456,-413.21,255.09,668.3,1.725,0.0,1125.0,1125.0,4.348690236247385,2.122964456037176,5.1829773415734595,64.90694398997891,1.1222545233028582,76.72027111526653,0.019791666666666666,4,6.081123958333333,0.6233793085373918,0.001029214136614078,30.93733333333333,0.010934146311237583,2.152778361756237e-06,49.69233333333333,1.3381521670655483,4.950000000000003,0.0023101742377859805
S081,13700.0,13729.984375,N2,-0.013203124999999953,9.91308452461057,-45.84,25.03,70.87,1.7149999999999999,0.0,1125.0,1125.0,0.395283335002319,0.39624978093229135,0.5119237953272169,64.83390478253632,0.30821904929278554,66.04543890383347,0.20104166666666667,103,6.797783716666667,0.13394533573509154,-1.5217137374440447e-05,30.944666666666663,0.01454494948618064,3.0555563844282075e-06,57.68333333333333,1.585510082661798,5.3799999999999955,0.0023701395318303847
S081,13730.0,13759.984375,N1,-0.07482812499999986,52.27810386301444,-507.71,303.37,811.0799999999999,1.76,0.0,1125.0,1125.0,20.57720883495864,8.12403600050492,8.01088770559151,64.51552882770558,1.4000291954659114,73.27346040688948,0.07395833333333333,26,7.490486475,0.2749833055462325,0.0003388427145298162,30.970000000000006,0.02309401076758505,3.333334237558111e-05,56.28266666666666,1.2600077601171964,3.969999999999999,-0.0022259033815927127
S081,13760.0,13789.984375,N2,-0.08004166666666673,11.350857598764534,-29.84,27.16,57.0,1.1,0.0,1125.0,1125.0,0.09636964965693294,0.30815732589052625,0.34546761536197407,64.2315502003443,0.29867852391582456,64.7533782902483,0.004166666666666667,4,7.765056066666667,0.17204245668180926,0.0001158257905343398,31.081333333333326,0.041851589641918055,7.02083523785666e-05,51.46666666666667,1.2145954973661899,3.8200000000000003,-0.0020822227870613027
S081,13790.0,13819.984375,N1,0.5681822916666666,97.75981029297701,-630.06,684.51,1314.57,0.275,0.0,1125.0,1125.0,25.214254728090925,17.00887789018821,10.510037984588829,64.49995511116694,5.605945414538216,162.2621335986927,0.06458333333333334,20,8.924910233333332,0.8235727051412617,0.0012613096168917143,31.186666666666664,0.031019706997685522,4.979168017352546e-05,49.05533333333334,1.0061866405173325,3.0,-0.0008240280013096793
S081,13820.0,13849.984375,N1,-0.6668385416666667,23.113125227143083,-240.57,80.8,321.37,4.225,0.0,1125.0,1125.0,1.3827056809024834,0.45961468614723594,0.8587756748547447,63.68949873376313,0.32888859610993104,64.66838485689897,0.159375,81,9.320202099999998,0.10444041287335397,-7.620555713041363e-05,31.283333333333335,0.04109609335312621,7.083335254810921e-05,56.379333333333335,2.176841646871806,7.350000000000001,0.0037004176704692037
S081,13850.0,13879.984375,N2,0.25433333333333347,15.699353462448347,-40.1,22.2,62.3,4.225,0.0,1125.0,1125.0,0.33395125018481364,0.46599188565896726,0.5020779304688555,63.66232504661824,0.3722606506967907,64.73020933072904,0.04479166666666667,34,8.814707466666666,0.17329270663701404,-0.00029882597559298374,31.397333333333336,0.029431653406191527,4.881945768756886e-05,63.81466666666667,3.5297580024069015,9.519999999999996,0.00605812664337203
S081,13880.0,13909.984375,N2,-0.0053645833333332655,15.170291776212228,-38.53,19.75,58.28,3.4000000000000004,0.0,1125.0,1125.0,0.4261919050504779,0.49968631653323825,0.36180338957551705,63.56153020215754,0.33166754471185733,64.50581369148055,0.30625,134,8.165908966666667,0.19471850616265413,-0.00034980786051645534,31.468000000000007,0.02386070689089762,3.034723045443523e-05,59.80266666666667,2.157714737607566,7.939999999999998,-0.003705834338605235
S081,13910.0,13939.984375,N2,-0.23537499999999997,15.045098259240726,-37.76,21.89,59.65,2.81,0.0,1125.0,1125.0,0.2430255437820386,0.482465996211132,0.4996863165332382,63.42989083321259,0.36655907218439315,64.22616289332565,0.2,128,7.455879075,0.19029628885075342,-0.0003428456357545669,31.53066666666666,0.017499206331208543,2.4930562318402874e-05,50.596999999999994,4.931079090827889,14.230000000000004,-0.008839412120066222
S081,13940.0,13969.984375,N2,0.26400520833333346,15.22467323985607,-39.0,21.94,60.94,4.07,0.0,1125.0,1125.0,0.473902240270431,0.3508360550171547,0.3468218177449177,63.38085894705355,0.3307982270729742,64.20280367709809,0.013541666666666667,11,6.859202016666668,0.17810950326227143,-0.0003165032625063105,31.577999999999996,0.021664102412362097,2.680556282702927e-05,41.187666666666665,0.9321433485372416,2.549999999999997,-0.001154896146618963
S081,13970.0,13999.984375,N2,-0.25426562500000005,15.208096595723609,-39.18,20.42,59.6,3.56,0.0,1125.0,1125.0,0.2927880229601083,0.24393467007354422,0.30815732589052625,63.49937280650809,0.2803774481527169,63.647466563878254,0.0,0,6.26588395,0.15125351011044616,-0.0002726473630228306,31.622666666666667,0.015902480589168412,2.3263895199623852e-05,40.779666666666664,0.1289052192719735,0.3299999999999983,-0.00021121533507360445
S081,14000.0,14029.984375,N2,0.20570833333333335,15.77672582735712,-40.19,21.89,62.08,3.76,0.0,1125.0,1125.0,0.3256337304225238,0.21266078476061356,0.4807221130757352,63.35775811272535,0.3703987887642235,64.20280367709809,0.009375,8,5.7802786500000005,0.12532919949946822,-0.0002255636883582054,31.662,0.0160000000000012,1.5138892995577352e-05,46.955999999999996,4.652320281321998,14.669999999999995,0.008329377259488187
S081,14030.0,14059.984375,N2,-0.024427083333333308,16.510948242280527,-40.79,25.64,66.43,3.46,0.0,1125.0,1125.0,0.5608298894767964,0.3649343548274584,0.4903927263343806,63.33614773720673,0.30464155558323924,64.22616289332565,0.14375,73,5.492163016666666,0.1110475483363608,-0.00019649730720955598,31.692666666666664,0.013399834161494236,9.027780226719704e-06,55.31700000000001,0.07151456728061333,0.21999999999999886,6.406251737807059e-05
S081,14060.0,14089.984375,N2,-0.044265625,15.825965909248428,-39.84,23.35,63.190000000000005,3.505,0.0,1125.0,1125.0,0.3541038547242258,0.2943625410196677,0.38349181506548774,63.355042734744515,0.2887070234018539,64.22616289332565,0.07083333333333333,50,5.0932747,0.10076965853301281,-0.00018140486127519027,31.722,0.013266499161421317,9.583335932979377e-06,49.08866666666667,4.615451392394417,14.600000000000001,-0.008265280019878475
S081,14090.0,14119.984375,N2,0.024270833333333346,15.479983123025338,-41.77,23.55,65.32000000000001,3.365,0.0,1125.0,1125.0,0.5357853788805945,0.3871582274155562,0.4996081363734537,63.35645957103235,0.34410118300094744,64.22616289332565,0.11041666666666666,76,4.784747775,0.07371974304943264,-0.00012206283584603834,31.747333333333337,0.012364824660660675,6.111112768856414e-06,40.548333333333325,0.14908796806658411,0.3300000000000054,-0.00024989590112193866
S081,14120.0,14149.984375,N2,0.04298437500000006,17.212288418566622,-46.67,27.99,74.66,3.9050000000000002,0.0,1125.0,1125.0,0.4665503947413755,0.4517892188442402,0.48247836559154533,63.355676135892395,0.27758127443184205,64.1404708432983,0.16666666666666666,94,4.692877891666667,0.0791916726186952,-0.00013563263336388706,31.774666666666658,0.012310790208412664,1.2986114633819881e-05,46.306,4.691414569899646,13.43,0.00836014115672232
S081,14150.0,14179.984375,N2,-0.1995729166666668,15.589136061723664,-40.01,24.44,64.45,3.065,0.0,1125.0,1125.0,0.22398497903505346,0.19982631347136334,0.03225804701500421,63.29426979775081,0.1478820572703678,64.03905058634146,0.04895833333333333,33,4.477873991666667,0.03589208313553651,-4.945218246858249e-05,31.785333333333334,0.015216949614017445,1.6458337797942847e-05,53.834999999999994,0.08281505499203123,0.25,0.00013420142529335313
S081,14180.0,14209.984375,N2,0.00014583333333337834,15.636817866802888,-40.67,23.97,64.64,4.0649999999999995,0.0,1125.0,1125.0,0.3790736493047521,0.21399595985282835,0.18742764807756856,63.35395006901478,0.23258113877715547,64.1404708432983,0.14270833333333333,84,4.304824141666667,0.04698515725370012,-7.279167404288031e-05,31.80333333333333,0.013984117975601722,1.1111114125193481e-05,47.907666666666664,4.886126402603828,13.949999999999996,-0.008703856527738859
S081,14210.0,14239.984375,N2,0.2395729166666668,16.225366547763,-42.73,26.73,69.46,3.7350000000000003,0.0,1125.0,1125.0,0.49899965034222893,0.2907257889747657,0.4559490540954719,63.42330612819206,0.3289348004828579,64.1404708432983,0.2989583333333333,132,4.164223016666667,0.06334328697002062,-0.00011309320602571768,31.807333333333336,0.012364824660661083,4.5833345766424955e-06,43.913,1.7178419601348662,5.219999999999999,0.0026947576754442473
S081,14240.0,14269.984375,N2,-0.004078125000000081,15.385150629074555,-39.7,24.2,63.900000000000006,3.46,0.0,1125.0,1125.0,0.48765577995367004,0.11557806855349137,0.41689446897732874,63.48259480690255,0.364792063094154,64.1404708432983,0.41770833333333335,172,3.9795293916666665,0.03968107327624758,-7.054078410937068e-05,31.814666666666664,0.011175369742826569,5.347223672749363e-06,45.12366666666667,0.0632710219786445,0.1599999999999966,9.531252585517626e-05
S081,14270.0,14299.984375,N2,-0.04345312499999996,15.65463944154185,-43.19,25.39,68.58,3.4850000000000003,0.0,1125.0,1125.0,0.3449017951009953,0.3518906647391425,0.4953943697673826,63.415640755443015,0.34648123075047904,64.1404708432983,0.31979166666666664,126,3.9909528749999996,0.10733944699430266,0.0001594329488479137,31.820666666666664,0.01436043948569243,9.583335932979735e-06,41.37733333333334,1.750007492047454,5.229999999999997,-0.002792014646271333
S081,14300.0,14329.984375,N2,0.0170781250000001,16.976313978788106,-42.43,25.8,68.23,4.445,0.0,1125.0,1125.0,0.26515685871238975,0.42682919267808084,0.40084546066200294,63.32393094935859,0.30030948624961706,64.01562309311689,0.18125,109,4.054817875,0.04154950345763522,4.244693056828626e-05,31.83066666666667,0.016719914938647086,6.597224011834185e-06,46.094,5.088261392656632,15.149999999999999,0.009064794125649448
S081,14330.0,14359.984375,N2,0.030359374999999862,15.74935666100152,-39.2,24.17,63.370000000000005,3.535,0.0,1125.0,1125.0,0.20138409955990955,0.2200827456448041,0.3259334884434075,63.21821607120672,0.249730069380895,64.01562309311689,0.10520833333333333,74,4.040409833333333,0.06667438123526576,-8.58327350891751e-05,31.831333333333323,0.010241527663825674,2.361111751603627e-06,58.69733333333332,1.1639585712367753,5.339999999999996,0.001809306046361232
S081,14360.0,14389.984375,N2,-0.040682291666666766,15.83724791640669,-41.65,23.2,64.85,3.5149999999999997,0.0,1125.0,1125.0,0.6334292690497408,0.5931822943876528,0.6637141651762116,63.24056819077797,0.26675814431912226,64.42049363362563,0.08958333333333333,66,4.151733783333333,0.28080796044222056,0.0003890422175136224,31.836666666666662,0.009428090415822108,-4.722223503208069e-06,59.071999999999996,2.395031523800888,5.830000000000005,-0.00407562610558434
S081,14390.0,14419.984375,N2,-0.01402604166666661,17.31529840167085,-43.94,30.55,74.49,3.45,0.0,1125.0,1125.0,0.4965855638479861,0.26193515617737656,0.46547350257261927,63.32833648634226,0.32423942688382185,64.13267497929586,0.1625,108,4.538439691666667,0.09910645185529847,5.3765247440659594e-05,31.85066666666667,0.010934146311238478,1.173611429473618e-05,57.532000000000004,0.8766352339105092,2.6400000000000006,-0.00015861115413714095
S081,14420.0,14449.984375,N2,-0.12823437500000007,16.18424409525053,-38.68,22.72,61.4,3.5549999999999997,0.0,1125.0,1125.0,0.4763094159495717,0.07210109366946756,0.36699204313203054,63.390603510066526,0.33716212154907466,64.19501538281614,0.23854166666666668,134,4.363086016666667,0.06918318307001872,-0.00012048816159075568,31.862000000000005,0.011075498483890871,-2.638889604733809e-06,52.005,2.8804441208489586,9.68,-0.0048142026948249485
S081,14450.0,14479.984375,N2,0.2501614583333333,16.79003201384722,-46.16,27.84,74.0,3.125,0.0,1125.0,1125.0,0.5359919088837898,0.41015219905406924,0.6058740243097844,63.323965413325894,0.3628420205916553,64.19501538281614,0.17291666666666666,101,4.545874191666667,0.3369293403597975,0.0005380578197856498,31.868000000000002,0.01077032961426878,8.40278005717757e-06,41.39266666666666,1.158475818574657,4.450000000000003,-0.000819861333512732
S081,14480.0,14509.984375,N2,-0.125640625,17.714286786671174,-43.6,29.86,73.46000000000001,3.875,0.0,1125.0,1125.0,0.3235528008386816,0.36110844016106236,0.3693497946842983,63.23676433679702,0.2703600298304071,64.13267497929586,0.06458333333333334,51,4.9297246,0.08638463865134431,-8.437956846233954e-05,31.868,0.009451631252505015,-1.180555875801807e-06,44.521,0.8059170759658428,2.980000000000004,0.0013422573085550434
S081,14510.0,14539.984375,N2,0.047458333333333304,15.70771035783904,-38.94,21.62,60.56,4.130000000000001,0.0,1125.0,1125.0,0.2850134012443782,0.2382571993782256,0.1939822756436497,63.19354046890118,0.21012219940829696,64.13267497929586,0.07708333333333334,60,4.916992108333333,0.11278922890276327,-5.4390369138012386e-05,31.86466666666667,0.008844332774280877,1.388889265649189e-07,45.162,0.4813688814204758,1.6499999999999986,-0.0006331946162094781
S081,14540.0,14569.984375,N2,-0.250015625,17.063633239221723,-43.31,24.35,67.66,3.86,0.0,1125.0,1125.0,0.2900532009390691,0.4596087840489997,0.32828864966672233,63.23190125959108,0.2533043570990415,64.13267497929586,0.027083333333333334,24,4.986737658333332,0.13694462603576282,9.01732108759795e-05,31.874000000000002,0.011999999999999745,7.222224181375763e-06,45.526666666666664,1.2930360483073253,5.109999999999999,0.0014336809444664028
S081,14570.0,14599.984375,N2,0.25862500000000005,16.470418656292306,-41.05,22.71,63.76,4.22,0.0,1125.0,1125.0,0.25617165130153563,0.4559490540954719,0.28563518095154566,63.239339756172676,0.2446743482522801,64.13267497929586,0.022916666666666665,21,5.0420539,0.1294356129631254,0.00018611669111238358,31.877999999999997,0.014236104336041444,1.3888892656491736e-07,58.74400000000001,4.901443052816179,16.75,0.00880375238817068
S081,14600.0,14629.984375,N2,-0.09116666666666667,16.27762688392329,-41.78,23.08,64.86,3.55,0.0,1125.0,1125.0,0.2750946806707344,0.4671953385630041,0.3128314214779086,63.2440734102115,0.2408564242746332,64.13267497929586,0.023958333333333335,19,5.263214799999999,0.10942910178936255,7.062381690099185e-06,31.886666666666656,0.009067647005823435,2.0138894351913187e-06,73.74966666666667,4.308102044081852,11.719999999999999,0.0076210090117754484
S081,14630.0,14659.984375,N2,0.11353645833333337,21.8358260244614,-132.48,94.46,226.94,2.285,0.0,1125.0,1125.0,1.970015851864452,5.884178612407031,4.478257538551934,63.27117016379806,0.8034204609315879,70.04284403134984,0.07083333333333333,28,6.16537275,0.7133137527790891,0.0010513400985623094,31.89066666666666,0.010934146311237585,-9.027780226719703e-07,79.62633333333333,0.8523750478646254,2.3400000000000034,0.001011562774403964
S081,14660.0,14689.984375,N2,-0.10339583333333335,14.677869308133566,-37.73,21.31,59.03999999999999,2.785,0.0,1125.0,1125.0,0.4999989149293782,0.4194684446316155,0.3763632627602694,63.22075464226038,0.3774022563667647,63.94528911499267,0.13854166666666667,85,6.306485025000001,0.04923884840101065,-3.5309827503750876e-05,31.899333333333335,0.011234866364234906,6.666668475116088e-06,69.60799999999999,5.673386055375867,18.60000000000001,-0.01022069721698601
S081,14690.0,14719.984375,N2,0.09959895833333338,15.495106814854454,-41.95,24.5,66.45,3.54,0.0,1125.0,1125.0,0.478576402744524,0.4841229182759271,0.3903123748998999,63.43209778987902,0.3915928692183022,63.94528911499267,0.271875,132,6.675689166666667,0.30112094860613,0.00021325669934263758,31.906000000000002,0.010832051206181048,-6.111112768856415e-06,49.638,5.421412116168013,17.129999999999995,-0.0097463915327668
S081,14720.0,14749.984375,N2,-0.04340104166666678,15.04616497184578,-41.02,24.3,65.32000000000001,2.88,0.0,1125.0,1125.0,0.4618050334165803,0.26672362672915867,0.13188915142607024,63.32462838716207,0.33662238164772423,63.94528911499267,0.04479166666666667,33,6.5544018500000005,0.09719189884515841,-1.2619239534298918e-05,31.898666666666664,0.011175369742826569,-2.1527783617562375e-06,40.745666666666665,0.34039862253279196,1.2999999999999972,-0.00025378479106575273
S081,14750.0,14779.984375,N2,-0.07445833333333335,14.527254121504308,-38.94,19.6,58.54,3.605,0.0,1125.0,1125.0,0.47563918981607145,0.05581428468591172,0.04559597630883184,63.275779609026976,0.32864347933571547,63.94528911499267,0.0020833333333333333,2,6.397111083333332,0.1122425862656107,-0.00017861851893948545,31.892666666666663,0.011234866364234906,-4.0277788703826366e-06,41.568666666666665,0.18893973171946193,0.5700000000000003,-8.569446769055692e-05
