participant_id,window_start_time,window_end_time,sleep_stage,BVP_mean,BVP_std,BVP_min,BVP_max,BVP_range,BVP_median,SDNN,median_nni,IBI_mean,x_std,y_std,z_std,mag_mean,mag_std,mag_max,movement_density,burst_count,EDA_mean,EDA_std,EDA_trend,TEMP_mean,TEMP_std,TEMP_slope,HR_mean,HR_std,HR_range,HR_trend
S084,7137.0,7166.984375,W,0.08511979166666657,24.03756005986222,-80.84,82.67,163.51,2.12,25.82813969569587,703.125,698.291015625,0.5679510184646208,0.49342904476958205,0.5893992645529476,64.98268975388858,0.4710704298346076,67.80117993073571,0.15416666666666667,111,0.21321345,0.0009901889706010686,-2.7743887734344674e-07,35.83166666666667,0.022961320132392153,-3.059028607592354e-05,81.97233333333334,0.7640797660512215,2.3500000000000085,0.0013428128642613028
S084,7167.0,7196.984375,W,-0.27908854166666675,23.52435056782639,-48.99,46.77,95.76,5.51,20.99341875724578,734.375,739.2903645833334,0.20219874281810518,0.47794114111990815,0.1478102610236816,65.14740539248352,0.18242521959341385,65.57438524302,0.0020833333333333333,2,0.21312804999999999,0.00093818614757414,4.914949249931995e-07,35.724333333333334,0.033732608687869536,-5.218751415677032e-05,80.94200000000001,0.3111419825952993,1.4699999999999989,-0.0002090972789434868
S084,7197.0,7226.984375,W,0.26761979166666683,26.721543049164623,-51.98,45.1,97.08,6.76,22.461572905320217,734.375,738.8753255208334,0.1356408400888169,0.49093231705659335,0.19290530474101072,65.13073619548729,0.15039714262466292,65.22269543648132,0.0,0,0.21389665000000002,0.0009781469355367865,-1.6679692024656334e-09,35.70533333333333,0.022617593938248984,2.9166674578632223e-05,79.51866666666668,0.741910746354004,2.319999999999993,-0.0012550697849039122
S084,7227.0,7256.984375,W,-0.27614062500000014,29.054911365002326,-56.06,51.19,107.25,6.09,16.243454927396023,718.75,722.9085286458334,0.11987768650679834,0.44807531105272913,0.21137108216357317,65.11717310986873,0.14294350651953838,65.22269543648132,0.0,0,0.21439837500000003,0.000811229766696837,3.549994452580973e-07,35.799,0.0279702222610637,4.746529065356126e-05,81.57033333333334,0.5665832291513362,2.489999999999995,0.0008785071827547702
S084,7257.0,7286.984375,W,0.1928229166666667,29.517971426493865,-59.9,55.95,115.85,6.4,32.83196331205997,703.125,704.8990885416666,0.10642856726723121,0.4416654382844553,0.24762544169571912,65.11046472753678,0.14891148664661139,65.22269543648132,0.0,0,0.215145625,0.0009266367326924861,8.865256311104713e-07,35.900999999999996,0.03176476034853702,4.843751313951605e-05,83.56,0.7379611552559296,2.049999999999997,0.0012757642349620851
S084,7287.0,7316.984375,W,-0.23066666666666674,32.58075440625271,-60.79,57.32,118.11,6.325,17.715017141932687,718.75,723.4130859375,0.11557806855349137,0.4105329784425228,0.23683890079662917,65.10720410372248,0.14395761953994848,65.22269543648132,0.0,0,0.215892875,0.0009628234570132793,1.3705146946925745e-07,35.973,0.026095976701399667,4.128473342142264e-05,84.30033333333333,0.06421232142059762,0.23000000000000398,-4.302084500348161e-05
S084,7317.0,7346.984375,W,0.008890624999999996,32.56234208324657,-64.79,57.18,121.97,6.895,32.24253762656937,734.375,735.9456380208334,0.09636964965693293,0.4377181995556298,0.2810396589995006,65.10244989954194,0.15198819351041318,65.22269543648132,0.0,0,0.21673619999999996,0.0009148169816963407,-3.836329165670821e-08,36.05,0.010327955589886225,8.194446667330216e-06,83.593,0.5929595264434168,1.6800000000000068,-0.0010365627811856522
S084,7347.0,7376.984375,W,0.1670052083333334,33.52071664222449,-63.91,60.24,124.15,6.42,24.596949540339256,718.75,721.0611979166666,0.07198059875565237,0.45011452053585455,0.3295340117962872,65.09208456827228,0.16042097812349507,65.22269543648132,0.0,0,0.21674687499999998,0.0008084154311831284,-4.862130225187247e-07,36.09000000000001,0.022509257354845873,3.236111988962769e-05,82.275,0.18097421547465484,0.5300000000000011,-0.00010697919568662974
S084,7377.0,7406.984375,W,-0.2891250000000002,34.04637163372736,-65.36,61.01,126.37,6.34,31.698642071795348,734.375,744.0022786458334,0.05581428468591172,0.4613713236254383,0.3318963165365888,65.09551660957743,0.1573499249939343,65.22269543648132,0.0,0,0.21689632499999997,0.0008776252442671663,4.828770841137927e-07,36.13366666666666,0.016017351702311215,1.767361590538573e-05,82.25766666666667,0.18126745126714988,0.5499999999999972,-0.0002190625594245214
S084,7407.0,7436.984375,W,0.41211979166666646,61.87425257407344,-715.58,237.55,953.1300000000001,8.035,13.732656368218235,734.375,727.3518880208334,14.043531612985765,8.178119029420824,11.041770783707229,65.15147219714325,3.31367804886626,89.1852005660132,0.07604166666666666,30,0.227826975,0.06355131901259833,2.777054898289632e-05,36.150333333333315,0.011100550536896235,-3.125000847711345e-07,82.259,0.14884779698291167,0.5999999999999943,-0.00010531252856785145
S084,7437.0,7466.984375,W,0.48657291666666597,108.6114721305225,-579.89,456.57,1036.46,10.77,12.74894146483206,734.375,732.958984375,18.339281439211224,8.471081257131852,16.20913769292691,64.82374815725309,4.229535023107554,92.20086767487604,0.084375,39,0.23569250833333333,0.09970919816747063,2.5979792854761516e-05,36.11333333333334,0.044070650349435074,-5.36805701173409e-05,81.32,0.4448969918232019,1.7999999999999972,-0.0003468750940958912
S084,7467.0,7496.984375,W,-1.1847135416666665,54.00233364287394,-448.4,285.68,734.0799999999999,5.875,26.795475079516176,734.375,734.6110026041666,22.82748173859836,6.957976225866414,16.116045640396198,64.79815464144994,4.528404435273679,119.82069938036582,0.029166666666666667,10,0.24789483333333337,0.004522429909781783,-6.7615795251680496e-06,36.025,0.01802775637731932,-2.3715284210959203e-05,79.76233333333334,0.2776290490724781,0.7999999999999972,-0.0004628126255459594
S084,7497.0,7526.984375,W,0.5495052083333335,18.119862513705723,-100.43,159.15,259.58000000000004,3.335,31.61538769841975,781.25,773.0224609375,0.8048349716539548,0.6298940331957079,1.4133785370129577,64.62627399252119,0.40558785761578126,67.66830868286867,0.12604166666666666,92,0.24221641666666663,0.0017344129870714808,1.9445582531896287e-06,36.06333333333334,0.023711225658373126,2.368056197932126e-05,78.68533333333333,0.6764797771470243,2.4099999999999966,-0.0008214585561682282
S084,7527.0,7556.984375,W,-0.14373958333333325,14.350833290080518,-29.22,24.82,54.04,3.215,23.868558448532752,734.375,731.5755208333334,0.11987768650679834,0.0,0.4920979305624937,64.65072253015371,0.24518971377661125,65.3299318842443,0.42604166666666665,222,0.2428462416666667,0.0009145396109139025,-4.231014602597265e-07,36.08000000000001,0.019148542155128272,1.618055994481455e-05,78.87366666666667,0.22008306512668363,0.6000000000000085,0.00034267370406730515
S084,7557.0,7586.984375,W,0.15013020833333332,13.68187821131645,-30.26,23.88,54.14,3.21,31.371705102176023,718.75,716.0563151041666,0.15612494995995993,0.0,0.43240962246141357,64.58331895370476,0.23742631988345583,65.79513659838392,0.27291666666666664,181,0.2422057416666667,0.0009439654257071918,-4.520324576910983e-07,36.10533333333334,0.013349989596333142,-7.847224350917687e-06,80.86533333333334,0.8378612985187668,2.8499999999999943,0.001470278176616257
S084,7587.0,7616.984375,W,0.01645833333333339,14.114186187217122,-28.14,25.22,53.36,3.5549999999999997,17.305275031861186,750.0,744.3522135416666,0.1356408400888169,0.0,0.4454583703582437,64.58908476646724,0.23301437032403782,65.3299318842443,0.2916666666666667,187,0.24135175,0.0007859004310343672,-4.948308633981311e-08,36.116666666666674,0.014907119849998702,5.97222384229056e-06,82.331,0.25767356609995096,0.8199999999999932,-0.0002869098000514841
S084,7617.0,7646.984375,W,-0.0273072916666667,14.14273489836997,-28.1,24.48,52.58,2.91,18.691558181781215,734.375,729.9153645833334,0.1356408400888169,0.0,0.4299636107826129,64.57580903645258,0.23114704037732275,65.79513659838392,0.26145833333333335,184,0.24178934166666669,0.001742104811694907,1.703597467338718e-06,36.146999999999984,0.010999999999997812,7.604168729427938e-06,81.37899999999999,0.14774640435557193,0.5799999999999983,-2.3958339832459793e-06
S084,7647.0,7676.984375,W,0.018260416666666623,14.814511677564102,-29.96,24.33,54.29,3.565,21.93792919090497,734.375,734.4970703125,0.1592592172022985,0.032258047015004204,0.3726779962499649,64.54548395794262,0.21718034358434796,65.3299318842443,0.19270833333333334,140,0.24802264999999996,0.001551864693683057,2.2569684941863354e-06,36.16899999999999,0.013000000000001313,1.461805952095942e-05,81.83266666666667,0.2654547460909716,0.7600000000000051,0.00046659734879485386
S084,7677.0,7706.984375,W,0.019515624999999925,14.86643834225706,-29.95,25.56,55.51,3.815,26.20446625700682,750.0,750.5940755208334,0.16232629604869597,0.06441510347391792,0.318518434404597,64.52196746218712,0.20177910810365993,65.3299318842443,0.14166666666666666,111,0.255367025,0.0017795900579557575,2.439960948340093e-06,36.20466666666666,0.01627540748764457,1.208333661114754e-05,81.58999999999999,0.32558665001296716,1.1500000000000057,-0.0005686112653567875
S084,7707.0,7736.984375,W,-0.10972395833333333,14.706274375842137,-29.87,24.38,54.25,3.245,19.830010731524734,734.375,740.185546875,0.17399263633843817,0.08507936450096987,0.3487079325484613,64.53855256895196,0.21704217245588892,65.3299318842443,0.17291666666666666,127,0.25411805,0.002086518798741097,-2.9856648724134297e-06,36.21666666666667,0.014681810363695627,1.52777819221366e-06,80.79066666666668,0.17033170253622387,0.5699999999999932,-0.000300069525843512
S084,7737.0,7766.984375,W,-0.0031510416666667095,15.229290122097607,-30.74,28.11,58.849999999999994,3.625,21.82410085980936,750.0,746.4111328125,0.194978186101819,0.06441510347391793,0.31598061649411346,64.53206122709808,0.2202054693496863,65.36818798161687,0.15208333333333332,114,0.253210675,0.0017976839459079028,-2.4255052152520676e-06,36.23266666666667,0.012364824660661133,1.4166670509621786e-05,80.96466666666669,0.20878590842189465,0.7000000000000028,0.00020229172154180813
S084,7767.0,7796.984375,W,-0.23686979166666652,52.24909932780066,-295.22,120.87,416.09000000000003,10.91,29.045867535823575,734.375,733.740234375,0.21137108216357317,0.11110243021644485,0.24393467007354422,64.51576024572184,0.2141181524416852,65.36818798161687,0.11041666666666666,92,0.253488225,0.0023608650055382237,-1.7038305403186103e-06,36.24000000000001,0.012382783747339168,-6.041668305575152e-06,79.24900000000001,0.7533275073521035,2.3800000000000097,-0.0009953127699958697
S084,7797.0,7826.984375,W,0.416515625,47.07910368569812,-92.58,83.53,176.11,11.415,17.622008001322403,734.375,738.8834635416666,0.18483053424390922,0.1592592172022985,0.2795007329547138,64.51644676156921,0.20405618900512745,65.3299318842443,0.12083333333333333,95,0.252442075,0.00393151713965169,4.367021366922034e-06,36.23266666666667,0.01436043948569201,-6.944446328239764e-07,79.118,0.13724430771438298,0.480000000000004,0.00016083337696218346
S084,7827.0,7856.984375,W,-0.03483854166666678,44.668448229881434,-86.21,77.74,163.95,9.695,31.457908745399312,718.75,730.224609375,0.254795584597841,0.16232629604869597,0.2200827456448041,64.53073772878544,0.24266886637603985,65.36818798161687,0.12083333333333333,102,0.25864424999999996,0.002928532113107179,-4.033149531561835e-06,36.239999999999995,0.010000000000001563,-6.944446328247159e-08,81.13866666666668,0.7963237755809865,2.280000000000001,0.0012126392178383324
S084,7857.0,7886.984375,W,0.056114583333333544,42.02993409225585,-87.8,74.28,162.07999999999998,9.485,16.63355518453034,718.75,715.1285807291666,0.2667236267291586,0.21794494717703367,0.20453835214941968,64.53464856547254,0.24993572030991526,65.36818798161687,0.12083333333333333,102,0.254555725,0.0030402392503510304,-5.0697923908942e-06,36.25,0.01154700538379432,-3.3333342375586368e-06,82.41833333333334,0.4423127350139899,1.3299999999999983,0.0007932293818439087
S084,7887.0,7916.984375,W,-0.35860937499999984,43.27551234283555,-89.21,79.41,168.62,9.08,25.5059179199922,718.75,725.8626302083334,0.3068216744797466,0.2091235015221601,0.18742764807756854,64.55597035230188,0.2806692110910877,65.36818798161687,0.14166666666666666,113,0.255900775,0.00310477378795541,5.029761130035025e-06,36.258,0.012220201853216865,1.3888892656560913e-07,83.32633333333334,0.10081280782828499,0.36000000000001364,0.000106840306760065
S084,7917.0,7946.984375,W,0.4443072916666665,44.78197773006445,-87.61,78.31,165.92000000000002,9.69,16.431419804855132,718.75,722.0703125,0.302757867592056,0.18998355191963334,0.18483053424390916,64.552380909664,0.27860167559939353,65.79513659838392,0.13645833333333332,111,0.25790767500000006,0.0018819210582208268,8.809657337689125e-07,36.27066666666666,0.015040685563571219,7.013890791527953e-06,83.36733333333335,0.1231782809138408,0.39000000000000057,-0.00018034727114455136
S084,7947.0,7976.984375,W,-0.03257291666666659,44.10091777726135,-90.35,75.47,165.82,9.645,15.957088026788526,734.375,733.935546875,0.2957874817753449,0.2068462551362458,0.16827350421923892,64.54510742698153,0.26992080211441344,65.36818798161687,0.12604166666666666,108,0.26679965833333336,0.0031251245215079904,-3.994880640972392e-06,36.26866666666667,0.011469767022723532,-1.1111114125193478e-06,82.80866666666667,0.15337825428948143,0.4899999999999949,-0.00027597229708449875
S084,7977.0,8006.984375,W,0.7486718749999984,375.8362166268604,-2866.47,2834.26,5700.73,16.295,9.046375648129974,703.125,706.4778645833334,23.004897482051994,22.263522342238062,22.33776753146855,64.61040558627492,8.312181721849846,115.08692367076287,0.11979166666666667,32,0.2724401,0.11694866712062178,-3.525991104055748e-05,36.263333333333335,0.016599866130652334,4.695319481997483e-19,81.55199999999999,1.0438658917696277,2.780000000000001,-0.0017779171489575591
S084,8007.0,8036.984375,W,-0.9534114583333344,165.93044656941814,-1011.4,1284.89,2296.29,11.2,38.73526946069435,703.125,739.4205729166666,0.46455997699137,0.5711487875326359,0.3661928757119972,63.98043378179486,0.26206187570444045,65.49809157525127,0.052083333333333336,40,0.24704075833333333,0.0021514612282347123,-3.607562393544484e-06,36.20099999999999,0.03771383477363953,-6.364585059837627e-05,76.12433333333334,2.7866451554193663,7.950000000000003,-0.004959619400938423
S084,8037.0,8066.984375,W,0.0021927083333333226,40.125785349717624,-85.01,61.97,146.98000000000002,12.07,19.97687532759079,765.625,761.6455078125,0.2263462809256845,0.27638539919628335,0.194978186101819,63.938028191074366,0.1974023911859881,64.96922348312314,0.11666666666666667,94,0.242963625,0.0016216300701377565,9.503663602339221e-07,36.095333333333336,0.026799668322989165,-4.361112294138538e-05,71.26066666666665,0.45428282918121543,1.4200000000000017,0.0003950695516139189
S084,8067.0,8096.984375,W,-0.44490625,41.9550660043422,-88.45,63.36,151.81,11.600000000000001,28.680098876108772,750.0,753.173828125,0.2617030727062426,0.30815732589052625,0.2382571993782256,63.95019726148181,0.23358485445588578,64.96922348312314,0.06041666666666667,53,0.24028424166666665,0.0017547041630800817,-2.555887629092788e-06,36.062000000000005,0.012220201853216863,1.1111114125195677e-05,75.31033333333335,2.656990130872817,7.219999999999999,0.00470198044216049
S084,8097.0,8126.984375,W,0.44602604166666665,40.01492814783509,-86.11,63.46,149.57,11.65,16.680916019553717,750.0,744.7021484375,0.24206145913796356,0.3432746081451732,0.18483053424390922,63.94311747505769,0.19795429852549182,64.96922348312314,0.15729166666666666,127,0.23781832499999997,0.0008512601361364251,-8.367645499035804e-08,36.09733333333334,0.01896195020443712,2.7430562996571394e-05,79.761,0.3313442318797789,1.0100000000000051,0.000594618216856072
S084,8127.0,8156.984375,W,0.15667708333333347,37.483736949896794,-82.55,75.3,157.85,9.905000000000001,28.31692613254916,750.0,741.1783854166666,0.1113170833949379,0.045595976308831845,0.12401959270615269,63.93286996620029,0.11907792235325088,64.96922348312314,0.028125,24,0.236708125,0.0009339862468875025,-8.203628527460009e-07,36.114000000000004,0.016653327995728762,1.0277780565805204e-05,80.55733333333333,0.13040790705406669,0.519999999999996,0.00021756950346394876
S084,8157.0,8186.984375,W,0.05184895833333328,41.12177673878246,-84.14,65.14,149.28,10.24,15.614688437771678,734.375,733.3333333333334,0.0,0.045595976308831845,0.1592592172022985,63.9357643346297,0.13037361705816983,64.73020933072904,0.028125,26,0.23567265000000004,0.000935266474059659,-3.791849986938443e-07,36.12666666666667,0.01273664878302879,1.1458336441605889e-05,81.20266666666666,0.21349368973240418,0.6800000000000068,0.00038166677020040607
S084,8187.0,8216.984375,W,-0.6279427083333331,43.57664733555272,-88.64,69.93,158.57,11.06,15.38132439773219,734.375,728.857421875,0.10642856726723121,0.032258047015004204,0.17677362623014653,63.93460375926758,0.147141016651073,64.73020933072904,0.03333333333333333,30,0.235000125,0.0008084154311831164,-4.2227420309087126e-07,36.152333333333324,0.016265163865006795,2.142361692263717e-05,81.731,0.20909886019137974,0.6500000000000057,0.0003162153635566888
S084,8217.0,8246.984375,W,0.3908645833333334,42.40319562056413,-89.26,70.57,159.82999999999998,11.129999999999999,19.645654250751665,718.75,726.2532552083334,0.11987768650679834,0.0,0.2221950938302244,63.948847014809274,0.19139525382173703,64.73020933072904,0.052083333333333336,46,0.23520295000000005,0.0008462252344972844,4.114324032748454e-07,36.189,0.01972308292331613,2.3437506357830875e-05,82.27299999999998,0.074661458151667,0.3100000000000023,1.899306070775671e-05
S084,8247.0,8276.984375,W,-0.17954166666666668,40.83081216151716,-82.26,64.96,147.22,9.515,26.265112699492036,703.125,701.1800130208334,0.13188915142607024,0.0,0.2242827108249764,63.94806645151706,0.19095491359537753,64.73020933072904,0.053125,45,0.23537375,0.0009244821185398799,4.12544382743155e-07,36.22833333333333,0.018633899812498144,1.8437505001493507e-05,83.24833333333332,0.39780299423486276,1.4000000000000057,0.0007139238047753377
S084,8277.0,8306.984375,W,-0.0018906250000000568,40.77761242165796,-84.04,64.85,148.89,10.58,15.748741987738908,734.375,730.712890625,0.12801909579781015,0.0,0.21358993356949718,63.94438453182159,0.17398327468280994,64.73020933072904,0.04791666666666667,44,0.23589682500000003,0.0009354492206287812,1.0035614701501333e-07,36.25,0.012649110640675495,4.305556723513239e-06,84.456,0.18384051058821013,0.6500000000000057,0.0001500000406901167
S084,8307.0,8336.984375,W,0.12314062499999982,89.69597423600956,-704.95,493.13,1198.08,11.23,35.822229217384525,718.75,731.4290364583334,7.981031929501486,7.003778432131393,6.122700461193573,64.40747522911573,4.022857766668308,91.28526715741155,0.06041666666666667,18,0.2539719416666667,0.08994953669422055,4.560305555638442e-05,36.263333333333335,0.011925695879999683,1.5277781922137336e-06,83.211,0.5562634268042441,1.8500000000000085,-0.0009975349928209084
S084,8337.0,8366.984375,W,0.1846249999999999,170.72152222096284,-1211.42,828.01,2039.43,3.925,67.94423602760077,703.125,749.2024739583334,9.773574597692836,10.778851585074152,7.02094584479581,64.7107327075992,5.048744640566698,103.82196299434914,0.08229166666666667,34,0.12046207500000002,0.02887029465706995,-3.200665646881957e-05,36.29566666666666,0.02629110538228076,1.4479170594393417e-05,83.211,1.4829033459175056,4.200000000000003,0.002428854825535707
S084,8367.0,8396.984375,W,-0.17427083333333335,14.310888435091977,-30.61,22.89,53.5,3.505,23.83769386922575,765.625,758.8948567708334,0.3669920431320306,0.05581428468591172,0.3068216744797466,64.40814909410683,0.29706386177413774,64.7533782902483,0.003125,3,0.10157879166666665,0.002193545489596821,-2.9192631616924814e-06,36.227999999999994,0.029143323992526254,-4.8472235371157846e-05,84.45066666666666,0.33779612523269453,1.3899999999999864,-0.0005652779311192301
S084,8397.0,8426.984375,W,0.08480208333333335,15.711066971326156,-32.16,24.58,56.739999999999995,4.205,18.705159009348083,750.0,746.8424479166666,0.34546761536197407,0.09636964965693297,0.3094837070518504,64.41819895625953,0.29723991168588076,64.7533782902483,0.007291666666666667,7,0.09869706666666665,0.0017577662801281527,-1.8649197767252024e-06,36.20133333333333,0.015860503004493792,8.333335593890668e-07,81.812,1.7243402603121376,4.6499999999999915,-0.002971875806172905
S084,8427.0,8456.984375,W,0.11470833333333338,17.3824578933743,-34.28,28.01,62.290000000000006,4.33,33.80699196526273,750.0,759.228515625,0.3108009366495253,0.05581428468591172,0.32834152908552733,64.41859688027503,0.30550664469746297,64.7533782902483,0.0010416666666666667,1,0.09678635,0.0014851683667180642,-5.170704527643375e-07,36.223333333333336,0.01299572579307749,7.361113107941225e-06,79.532,0.1505855238726495,0.4300000000000068,-0.00017215282447722224
S084,8457.0,8486.984375,W,-0.07096354166666659,17.04819496978602,-34.87,26.64,61.51,4.34,18.703933923533352,750.0,752.490234375,0.30412207150254644,0.09636964965693297,0.35501736068661327,64.40100946149173,0.3252901384738539,64.7533782902483,0.00625,6,0.095430625,0.0014920198170181914,-5.445919446050197e-07,36.26733333333333,0.01691810338726649,1.3333336950232867e-05,79.65,0.15386140950001953,0.4299999999999926,-0.00024159728775967869
S084,8487.0,8516.984375,W,-0.14534895833333333,17.859137471680842,-35.19,29.6,64.78999999999999,4.18,16.262030101740706,750.0,744.4498697916666,0.2986060642338367,0.09636964965693297,0.36010794822525094,64.3986268290967,0.32785290413093443,64.7533782902483,0.008333333333333333,8,0.09444852499999999,0.0014508185101434982,-3.2525399448078834e-08,36.30333333333333,0.019550504398152754,2.7361118533289e-05,79.96366666666667,0.3197653653679337,0.9500000000000028,0.0005703820991704894
S084,8517.0,8546.984375,W,-0.034796875000000074,16.844577628411272,-32.99,27.26,60.25,4.21,23.995097604485817,750.0,750.0162760416666,0.2732186624299299,0.1015291077584267,0.36110844016106236,64.40659233337402,0.3279186930233792,64.7533782902483,0.009375,9,0.093658575,0.001497508846175876,-3.5861337853010476e-08,36.330000000000005,0.01000000000000038,5.486112599316267e-06,80.45733333333334,0.18121687436758271,0.46999999999999886,0.0002970139694590884
S084,8547.0,8576.984375,W,0.21136979166666664,17.400884419833975,-35.18,27.59,62.769999999999996,4.66,18.381690493346962,734.375,739.2740885416666,0.26672362672915867,0.06441510347391793,0.359101647247065,64.4093183958194,0.3196932685574032,64.7533782902483,0.003125,3,0.0933917,0.0014754688271868032,-2.1961594499130577e-07,36.34466666666667,0.01454494948617973,-4.861112429769557e-07,80.54866666666666,0.09837795597704879,0.3100000000000023,0.00011645836492468707
S084,8577.0,8606.984375,W,0.08303124999999999,16.64681123052871,-33.8,26.52,60.31999999999999,4.485,29.52115823319715,750.0,748.0712890625,0.3013838885273878,0.09090593428863097,0.38608472506764047,64.37264610137778,0.3445053073233532,64.7533782902483,0.00625,6,0.093423725,0.001450818510143499,-2.2545383719993323e-07,36.347666666666676,0.013585122581540826,3.2291675426344473e-06,80.87599999999999,0.08155161964465757,0.25,3.819445480535068e-06
S084,8607.0,8636.984375,W,-0.032390625000000145,37.76504729993281,-291.79,288.5,580.29,2.3449999999999998,36.79234769542954,781.25,763.3626302083334,10.58193703879661,9.729928592577988,8.146464969117314,64.16757776889698,6.558795362403969,184.0706386146362,0.013541666666666667,4,0.09089370833333334,0.007286147770937025,-6.839704546360811e-07,36.347333333333346,0.017113996870656782,-1.104166966191207e-05,80.91499999999999,0.4189729505986428,1.3700000000000045,-0.0004817015195587872
S084,8637.0,8666.984375,W,-0.2783802083333338,125.18551948354833,-569.02,522.5,1091.52,4.67,38.25337179859692,781.25,795.0927734375,7.743509546979759,4.622392282862486,9.123649954829695,64.55198899279229,5.340303556393066,150.49584711878265,0.051041666666666666,17,0.08427524166666668,0.002890870751163143,-1.677955967327465e-06,36.30766666666667,0.02027861489900633,-2.4895840086762058e-05,79.182,0.625952074842795,2.0200000000000102,-0.0009943752697415566
S084,8667.0,8696.984375,W,0.26911979166666644,181.90446764403742,-1592.39,909.22,2501.61,-1.32,64.5051873065502,718.75,758.203125,17.714003963388137,29.524107307866043,8.204213155340609,64.92286079165105,3.953540180804135,92.70382947861431,0.06666666666666667,24,0.44125279999999995,0.393405301231156,-7.153161836252666e-05,36.224666666666664,0.03190959451673243,-5.0694458196197624e-05,76.642,0.7826893807039075,2.8799999999999955,-0.0013737503726536382
S084,8697.0,8726.984375,W,-0.22294270833333332,138.1475448107055,-467.3,616.55,1083.85,0.74,0.0,718.75,718.75,23.385661561449712,19.912594134490128,26.274519612342583,65.96755104306696,9.840759254940094,114.44212511134175,0.11041666666666666,45,0.10883755,0.013394878095656561,-1.8634033266610588e-05,36.11000000000001,0.02756809750417943,-4.45833454273384e-05,78.69933333333331,3.2891730808146225,10.179999999999993,0.0058665293691757174
S084,8727.0,8756.984375,W,-0.028447916666666108,163.67291220820883,-756.32,824.17,1580.49,5.96,55.44761768570765,718.75,685.0911458333334,21.78254260471878,11.560600444565535,13.716948874109377,64.30722449673766,5.764532579448014,101.67103815738285,0.084375,33,0.16611725833333332,0.03391723122261403,4.0431195646483206e-05,36.02466666666666,0.023626726862225028,-3.1388897403671215e-05,85.85533333333333,0.6612147071026845,2.4399999999999977,0.0005383334793656332
S084,8757.0,8786.984375,W,0.26019270833333347,36.20212230505204,-152.8,192.89,345.69,3.125,39.71440131919439,593.75,611.5478515625,0.4971260721358539,0.4928646686436574,1.3751751782348796,64.42187694872237,0.3177059494850247,65.26101439603893,0.10104166666666667,79,0.17069658333333332,0.0055386914723957025,-9.575608934355719e-06,35.938333333333325,0.03615552823873983,-6.239585025929292e-05,81.51700000000001,3.7582000567647635,10.530000000000001,-0.006562744835814029
S084,8787.0,8816.984375,W,0.0830989583333333,24.14733241242271,-99.83,110.43,210.26,3.1399999999999997,45.57644421685194,718.75,730.7535807291666,0.4987734521776618,0.5371516555328362,0.583392854106238,64.35705854484142,0.35392860276210947,65.98484674529449,0.07916666666666666,63,0.163085775,0.0016603314501553582,-5.912950822740543e-07,35.81100000000001,0.03708998067762559,-6.343751720852774e-05,77.836,0.9678243642314438,2.719999999999999,0.0016290976641432449
S084,8817.0,8846.984375,W,1.5165520833333344,85.04747864481955,-271.98,417.45,689.4300000000001,0.535,2.462796916585643,734.375,734.5703125,29.370617580897637,8.27706812650671,21.24732313102935,64.27329205064308,3.5900864389882976,84.16056083463323,0.09479166666666666,42,0.14476814166666668,0.016590047884347127,-2.5434692446476898e-05,35.69533333333333,0.036030850978324765,-6.069446090887131e-05,82.98966666666666,1.8491141723058144,6.069999999999993,0.0031307994603948152
S084,8847.0,8876.984375,W,-1.916895833333333,79.77728442716311,-378.89,375.11,754.0,4.36,0.0,734.375,734.375,21.221696837592102,7.274465947250584,21.33692695867731,64.35204190886941,3.2672800347968822,91.78235124467012,0.06979166666666667,36,0.14307064166666666,0.012139590574367155,1.6501943061507995e-05,35.622,0.021509687739868194,-2.7847229776265285e-05,86.2,0.40481271389783735,1.25,0.0002395833983244901
S084,8877.0,8906.984375,W,-0.10726562499999996,31.857023780287083,-109.8,103.08,212.88,2.3899999999999997,36.189953410644,734.375,714.84375,1.1935877398450159,1.1618160883994888,0.7254660559005424,64.35161628171112,0.30906892124319024,65.46754921333164,0.03854166666666667,29,0.15071345,0.0016021037723880462,4.725912740319211e-07,35.578,0.021664102412363676,-3.125000847710896e-05,83.62766666666667,1.2562740766073115,4.9199999999999875,-0.0021042019596902
S084,8907.0,8936.984375,W,0.32338020833333353,54.78728771520612,-281.07,239.34,520.41,1.8199999999999998,0.0,593.75,593.75,2.3478692966975396,2.9361874653361664,5.158728781287972,64.44836461768455,0.6089319387140021,68.48357467305573,0.06666666666666667,43,0.15221862500000002,0.001654280609320866,-6.746935423973388e-07,35.50966666666667,0.02073376205344443,-2.7187507375081896e-05,74.867,2.8403393576589875,8.469999999999999,-0.004998716633766448
S084,8937.0,8966.984375,W,-0.3369843749999999,38.92215394246045,-123.7,148.87,272.57,3.505,36.42087919893291,718.75,718.6197916666666,0.4568156691221915,0.5556674149540053,0.8869325259316829,64.45650736745822,0.3754326244085582,66.04543890383347,0.05625,41,0.15203714999999998,0.002085207622156608,2.0121268479076774e-06,35.452,0.021509687739869426,-3.451389825138361e-05,72.04033333333334,0.7232310987659626,2.799999999999997,0.0011590628144159093
S084,8967.0,8996.984375,W,0.12802083333333295,44.73713554545112,-138.47,191.38,329.85,4.975,21.637655300006916,718.75,709.423828125,0.6038612733898407,0.8048511497562072,1.4181667150223285,64.5117986988884,0.3718135295658369,65.46754921333164,0.14166666666666666,78,0.15395864999999997,0.0015687529051765922,2.946745591022568e-07,35.39033333333334,0.02105284356618395,-2.6423618278975917e-05,78.598,2.7674541851070753,9.050000000000011,0.0049875707974096125
S084,8997.0,9026.984375,W,0.12179687500000001,39.705456077775466,-182.72,139.39,322.11,4.235,46.97363753955953,703.125,702.734375,1.1715555120045884,2.3735281897859,1.7199045995627846,64.41782901798074,1.2634989553606284,88.74119674649424,0.00625,3,0.15790840000000003,0.0018246444968815162,1.3193636391502913e-06,35.333999999999996,0.01562049935181275,-1.812500491672183e-05,85.22466666666666,0.7868830210958228,2.5999999999999943,0.0012938892398788092
S084,9027.0,9056.984375,W,0.35558333333333325,75.13970357131257,-343.02,266.93,609.95,3.68,16.925549559918977,687.5,692.48046875,1.984204115564279,2.3898546325939063,5.707376744666113,64.37513788444201,0.7630513476032491,71.21797525905943,0.07291666666666667,46,0.16039567500000002,0.0022462949760383246,1.8589516761479196e-06,35.306000000000004,0.01724335620850383,-1.3958337119775384e-05,81.29966666666665,2.72024200312317,9.219999999999999,-0.004890105493192681
S084,9057.0,9086.984375,W,-0.4184583333333332,55.61808735622729,-257.07,289.61,546.6800000000001,5.3100000000000005,32.581688197914865,687.5,682.4381510416666,1.4867105164497298,1.624186495090183,1.5668408452599771,64.44439986298916,0.4490188925097302,66.40783086353596,0.05416666666666667,29,0.16085469999999996,0.0018336157612760691,1.358282920541161e-06,35.31766666666667,0.012565384549979474,7.534724266144874e-06,71.81466666666667,1.7944446370828921,5.719999999999999,-0.0030065285933508533
S084,9087.0,9116.984375,W,-1.5511822916666664,48.765670883061816,-215.68,246.11,461.79,3.3049999999999997,35.01263613647351,640.625,663.6637369791666,4.471807908689977,4.2900436858368804,10.75152963721584,64.50056463628148,1.715455216808,78.74642849044012,0.05416666666666667,31,0.16007563333333333,0.013810110004952492,-1.3327890334171639e-05,35.36366666666667,0.019058389811895667,2.1006950142943424e-05,75.81266666666667,3.260744223162695,10.83999999999999,0.0058759043717188505
S084,9117.0,9146.984375,W,1.0394010416666675,107.4812143935201,-345.72,390.17,735.8900000000001,-1.6800000000000002,0.0,640.625,640.625,20.335903077883106,15.32814662615985,28.259290430931244,65.26303026233431,6.528735021245391,91.91844211038392,0.12395833333333334,48,0.130432075,0.017117179929904,-9.053951023749736e-06,35.40833333333333,0.037423997054772465,6.156251669990308e-05,86.67766666666667,2.2738420984951633,7.280000000000001,0.003942119124923807
S084,9147.0,9176.984375,W,0.42162499999999997,88.93878659976502,-284.22,316.2,600.4200000000001,0.52,0.0,640.625,640.625,9.286568107876139,11.311970090028895,19.84086155705918,65.13832663594764,3.907453740642518,92.29301165310405,0.084375,34,0.13043220833333333,0.012934876955925424,-2.9998617078617903e-06,35.461333333333336,0.014313940369055018,1.520833745885775e-05,86.45433333333334,2.386225308352551,7.75,-0.004172674743021579
S084,9177.0,9206.984375,W,-0.043869791666666914,60.95334235412605,-286.44,302.94,589.38,1.52,21.923433907751683,671.875,663.9404296875,13.16954638702224,11.565568239675784,24.042141256689206,65.03302758337364,4.12033959039346,88.5607136375944,0.096875,39,0.11881826666666667,0.013465952689241445,2.0037902137017725e-05,35.452666666666666,0.014360439485691639,-1.5138892995575106e-05,76.31700000000001,2.637181765951422,9.049999999999997,-0.00474941101058241
S084,9207.0,9236.984375,W,0.16706250000000003,23.552237685980646,-64.01,41.8,105.81,6.92,34.235256013300045,703.125,704.9641927083334,0.3384951891172983,0.20123048128258855,0.4982608642958915,64.88926723196968,0.36325807817437117,65.79513659838392,0.027083333333333334,24,0.13299395,0.00158781429880827,9.763179731765314e-07,35.42133333333332,0.014313940369057645,-9.51389146969888e-06,73.29633333333332,2.1150484365349382,6.730000000000004,0.003550452352010729
S084,9237.0,9266.984375,W,0.3407447916666662,88.63286823333769,-472.67,342.4,815.0699999999999,3.9749999999999996,32.240491740257916,750.0,729.4026692708334,12.545167700708065,11.005425932538786,30.315602003364354,64.67208741923305,3.592130357565629,107.00467279516349,0.025,11,0.14689223333333332,0.013821962212202561,1.8579296272595554e-05,35.45633333333333,0.023732303348437234,3.59375097486746e-05,81.97233333333334,1.7657532544371979,6.590000000000003,0.0031514244659897094
S084,9267.0,9296.984375,W,0.43979166666666647,92.53709090344942,-362.18,299.41,661.59,2.745,0.0,750.0,750.0,0.7453297881176866,0.764000544238826,1.4591128868825285,64.33074507683922,0.48950266467893744,66.7757440991862,0.058333333333333334,35,0.1616233,0.0035234615947956657,3.6372848408433343e-06,35.47166666666667,0.01808928473495295,-2.1215283532791456e-05,83.95499999999998,1.5714701184983857,5.36999999999999,-0.0025903826471307067
S084,9297.0,9326.984375,W,-1.0113541666666668,56.73746529281805,-307.08,414.22,721.3,1.02,28.030678864114396,750.0,731.6162109375,0.5883628046796938,0.6372548548265442,0.894308294934632,64.35344818480065,0.33751305087613687,65.30696746902278,0.03229166666666667,24,0.159925975,0.0032144160394035823,2.9492475448262677e-06,35.41333333333332,0.021343747458110244,-3.4375009324818995e-05,75.42533333333334,1.6925281550259526,6.200000000000003,-0.002779931309660186
S084,9327.0,9356.984375,W,0.2137916666666665,74.27124816199019,-452.16,260.78,712.94,6.755,12.25100315943041,671.875,670.8251953125,1.1392595518093709,1.3539038206444192,3.2650690648535887,64.36633376031963,0.7590256397540455,67.6904720030818,0.08541666666666667,54,0.16297902499999997,0.001903355792902367,-2.3156972427564435e-07,35.36633333333334,0.016224124698182442,-1.2534725622482977e-05,74.93766666666667,1.7833913074688776,6.019999999999996,0.0028791327254591792
S084,9357.0,9386.984375,W,0.20439062500000044,76.6931490539811,-291.6,376.35,667.95,-1.795,0.0,671.875,671.875,2.5402455043208367,1.6759633294309342,2.986909918188863,64.36524731623852,1.8709234581126157,73.90534486760751,0.10104166666666667,73,0.1701736083333333,0.004694048406041835,5.8232044876314295e-06,35.361000000000004,0.016401219466854747,-6.215279463780061e-06,84.33633333333334,1.5044411660886652,5.460000000000008,0.0017782296490423304
S084,9387.0,9416.984375,W,-0.27489062500000006,135.91329762208284,-804.58,878.92,1683.5,1.7349999999999999,24.25301564966422,734.375,722.3714192708334,10.377563636997392,15.29804575731997,24.520873247631066,64.93936108099201,4.648835774600499,89.89994438263018,0.09479166666666666,38,0.15192010833333333,0.017380566612261637,-1.681047786742564e-05,35.335,0.02012461179749734,-2.6354173815693516e-05,83.54433333333334,0.8858242238477989,3.0700000000000074,-0.001462604563423546
S084,9417.0,9446.984375,W,0.7229322916666665,106.39095810380418,-545.51,576.36,1121.87,-1.25,0.0,734.375,734.375,21.971368581096375,17.88481228351773,17.451986185864268,64.7734188303698,4.464798019936383,102.2985825903761,0.08645833333333333,35,0.14677500000000002,0.020540600934896396,-2.7444587739959776e-05,35.38233333333333,0.02641758673476547,3.954862183936068e-05,77.81633333333333,1.706445591150082,5.8799999999999955,-0.002999688313717532
S084,9447.0,9476.984375,W,-0.11971354166666674,141.6608406343858,-834.95,971.51,1806.46,5.91,0.0,734.375,734.375,19.878934686517617,26.52406514659926,16.624367906477843,64.48809740100997,5.965690258848387,97.57561170702442,0.13125,57,0.13611115833333334,0.015571858565478429,-1.05177153097101e-05,35.42999999999999,0.015491933384831479,1.736111582061763e-05,73.33066666666667,1.1384021941104803,3.719999999999999,-0.002048611666832592
S084,9477.0,9506.984375,W,2.8314583333333343,74.6911638749743,-332.64,337.61,670.25,2.71,0.0,734.375,734.375,17.478095293943408,17.367732292962142,30.76062372940806,65.99361548682408,9.15645300560652,141.15594213493105,0.10208333333333333,47,0.11166622500000001,0.015448459379208064,3.1345340534217817e-06,35.444,0.018000000000000422,2.2986117346495114e-05,73.37533333333334,1.7786881557922274,5.63000000000001,0.0030618758305869763
S084,9507.0,9536.984375,W,-2.725812500000001,182.7475213071936,-742.34,653.78,1396.12,0.37,0.0,734.375,734.375,27.858652698307765,24.45784922859917,42.56122365876711,71.28369996662919,21.254282762169577,174.62531317080007,0.11354166666666667,67,0.1463479,0.05693665470377292,7.274226669440829e-05,35.487,0.018645821694595686,8.298613362253443e-06,85.85799999999999,4.83268896854191,15.620000000000005,0.008702919027484544
S084,9537.0,9566.984375,W,-1.1098489583333335,176.05938742523813,-659.36,800.11,1459.47,-2.69,0.0,734.375,734.375,27.902994086532285,33.83503459392679,24.561645955430805,66.21973754169707,12.494895020584256,166.3400132259223,0.078125,34,0.17025890833333335,0.04337234812277592,-6.54425982645937e-05,35.24933333333333,0.13999841268941443,-0.00025020840120670645,97.37133333333334,2.106510120765834,6.3700000000000045,0.0037208343426742454
S084,9567.0,9596.984375,W,0.7154687499999994,80.21191086148681,-511.02,350.33,861.3499999999999,2.66,15.300065698946623,734.375,736.5152994791666,6.8066755650804955,4.271024385970601,5.9804626208782725,64.88908594860251,3.4507341858716636,107.74506949276147,0.034375,15,0.11439015833333332,0.03245111404250909,1.0218525558410796e-05,34.733333333333334,0.17353834030425547,-0.00031090286211557684,98.32533333333335,0.9505217280817706,3.200000000000003,-0.0016498615586647027
S084,9597.0,9626.984375,W,-0.19011458333333334,9.667574356848982,-23.35,18.45,41.8,2.0599999999999996,43.59245316594381,734.375,742.8466796875,0.35520527857924006,0.032258047015004204,0.5014562127776794,64.68113801147896,0.35409820673370873,65.60487786742691,0.008333333333333333,8,0.08373108333333333,0.025232729179111575,-4.051938208533585e-05,34.084666666666664,0.15562204928037177,-0.0002758334081579354,94.40366666666667,1.8216887464352645,5.510000000000005,-0.003252466160065688
S084,9627.0,9656.984375,W,0.10345312500000002,12.77053088016878,-27.28,20.12,47.400000000000006,3.5549999999999997,39.13956901934608,812.5,819.5475260416666,0.1462753717308556,0.04559597630883185,0.49789487400008003,64.61933482813437,0.3664351276795922,65.60487786742691,0.004166666666666667,4,0.03156458333333333,0.01305144840147594,-2.232632202862468e-05,33.81633333333333,0.020409692686454803,-2.0659727826530303e-05,84.81700000000001,3.7622583200342143,12.02000000000001,-0.00677836989430607
S084,9657.0,9686.984375,W,-0.6268802083333334,28.994148817157633,-340.1,76.34,416.44000000000005,3.315,23.727173962426832,796.875,801.1474609375,2.5654689355700646,3.242167377782269,4.809358642849954,64.67807121737064,3.3680823328316998,141.19844191774922,0.016666666666666666,5,0.037264824999999994,0.03184331240246595,4.204639356727256e-05,33.94133333333333,0.082167849890061,0.00014534726165019084,75.75833333333334,1.3226591481641157,4.730000000000004,-0.0023433686912349974
S084,9687.0,9716.984375,W,0.4310833333333335,20.172204313044777,-109.42,80.71,190.13,4.385,21.363295177930183,796.875,796.09375,0.38693955887479664,0.0,0.32349410736518824,64.59775968194212,0.31993865149178113,65.7875368135941,0.30104166666666665,189,0.009254833333333332,0.014343739507960336,-2.1296521402051164e-05,34.31133333333334,0.11709635158943105,0.00020993061250287965,74.33466666666666,0.3822977315595213,1.240000000000009,0.0006680557367772731
S084,9717.0,9746.984375,W,0.19696875000000003,17.129048450264932,-33.99,26.92,60.910000000000004,3.95,31.61096320669848,796.875,793.3349609375,0.21578094200034337,0.0,0.4330127018922193,64.61187875304034,0.3444788369085786,65.7875368135941,0.296875,181,0.0,0.0,0.0,34.662666666666674,0.09483084355255338,0.00016916671255607415,75.169,0.2098308842854179,0.7999999999999972,0.00032906258926394154
S084,9747.0,9776.984375,W,-0.05074479166666666,18.59658560779914,-36.64,29.81,66.45,4.18,33.636281101321856,781.25,782.0719401041666,0.17399263633843817,0.0,0.4229525846816507,64.58780045911269,0.33133344811620274,65.1536645170477,0.26458333333333334,181,0.0,0.0,0.0,34.95166666666667,0.08041904141571318,0.00014322920552007498,75.468,0.25776475062868043,0.7999999999999972,-4.652779039924738e-05
S084,9777.0,9806.984375,W,-0.1392760416666667,20.239193331639175,-40.25,32.38,72.63,4.0600000000000005,24.577232509004126,796.875,792.5130208333334,0.11557806855349137,0.0,0.47530029798422063,64.66162289518118,0.3644967691376038,65.1536645170477,0.35833333333333334,204,0.0,0.0,0.0,35.20933333333333,0.06652985962875826,0.00011701392063094696,76.64133333333334,0.2334199839107377,0.8800000000000097,0.0001049305840197984
S084,9807.0,9836.984375,W,0.15869791666666672,21.170110852636373,-42.04,33.51,75.55,4.845000000000001,20.56961998902886,812.5,808.3333333333334,0.0,0.0,0.49881695979086366,64.74528210916152,0.3812080863323328,65.1536645170477,0.465625,243,0.0,0.0,0.0,35.42100000000001,0.05243090691567349,9.163196930120751e-05,76.14266666666666,0.3015729136083388,1.0700000000000074,-0.0004906251330905866
S084,9837.0,9866.984375,W,-0.1883854166666667,21.23135712605188,-41.65,32.38,74.03,4.735,23.039424000706607,796.875,796.6227213541666,0.03225804701500421,0.0,0.49859176687947826,64.743561951512,0.3809779049468624,65.1536645170477,0.4625,242,0.0,0.0,0.0,35.593333333333334,0.04437216344611663,7.743057655994357e-05,74.84266666666666,0.15652333869284488,0.6199999999999903,-0.0001796528265117267
S084,9867.0,9896.984375,W,0.5526145833333335,55.36794275982828,-583.59,235.26,818.85,5.89,55.93985722486727,796.875,800.2848307291666,24.80827680177049,7.10327462630206,3.9995176575501645,64.57343315573432,2.26703304238003,79.30321557162736,0.046875,15,0.017986591666666666,0.03531103734186046,4.2819076068542766e-05,35.721666666666664,0.04050377211514619,6.600696234998181e-05,75.71766666666666,0.5388053658068217,1.5499999999999972,0.0009231599726453928
S084,9897.0,9926.984375,W,-0.3055572916666672,120.72465567227526,-764.34,829.74,1594.08,5.27,72.27049115267569,781.25,812.255859375,11.703773578304657,5.11823359218458,3.0682740352770894,64.87609460818378,2.276843221799705,77.78174593052023,0.03125,6,0.0037574166666666667,0.009896911991107238,-1.0268630389710929e-05,35.74566666666667,0.020604745947368722,1.3229170255308927e-05,75.30766666666668,0.38084715511023076,1.269999999999996,-2.4618062233630308e-05
S084,9927.0,9956.984375,W,-0.10642187499999996,25.028943459255423,-48.31,36.75,85.06,6.045,35.757681031101534,796.875,801.4078776041666,0.03225804701500421,0.48491904930101476,0.2530285309999645,64.90802807776444,0.1988912336155373,65.03076195155643,0.0,0,0.0,0.0,0.0,35.754,0.015832456116052492,1.9722227572221266e-05,74.96133333333333,0.41729073264997896,1.1800000000000068,-0.000664166846833456
S084,9957.0,9986.984375,W,-0.030572916666666748,25.257955949250256,-50.95,36.29,87.24000000000001,6.21,21.913234659546674,796.875,796.4192708333334,0.032258047015004204,0.4699106002445808,0.24944382578492943,64.90392882429735,0.19848972402587436,65.68104749469211,0.0010416666666666667,1,0.0,0.0,0.0,35.809,0.02270829510700135,3.385417585019993e-05,75.54899999999999,0.3766815631272656,1.230000000000004,-9.201391384926647e-06
S084,9987.0,10016.984375,W,0.1191041666666667,25.195124101069954,-64.25,52.78,117.03,6.515000000000001,33.56397526642296,812.5,816.4632161458334,0.03225804701500421,0.4907300400650262,0.23239907830544904,64.91964463145412,0.18300526142943763,65.03076195155643,0.0,0,0.0,0.0,0.0,35.86466666666667,0.01910206504252427,2.1250005764431794e-05,74.96233333333333,0.15930439067674443,0.6000000000000085,-0.0002707292401066727
S084,10017.0,10046.984375,W,0.019244791666666632,24.45049750692019,-49.04,34.82,83.86,5.725,19.657550617120343,812.5,811.42578125,0.06454972243679027,0.4928294424798503,0.26506476868347145,64.90622865239438,0.2097191529196385,65.68104749469211,0.0010416666666666667,1,0.0,0.0,0.0,35.89799999999999,0.014236104336040778,5.555557062596938e-06,74.04766666666666,0.28820922184336106,0.980000000000004,-0.0005175348626125388
S084,10047.0,10076.984375,W,0.08695833333333339,24.432438566175307,-59.79,49.28,109.07,5.995,34.0786645313984,796.875,793.1396484375,0.03225804701500421,0.4988876515698589,0.26672362672915867,64.91200080937375,0.20882829596636804,65.56675987114203,0.0010416666666666667,1,0.0,0.0,0.0,35.91599999999999,0.012806248474866737,4.236112260230174e-06,73.85666666666665,0.22692632186583386,0.7800000000000011,0.0004022223313320144
S084,10077.0,10106.984375,W,-0.1308020833333333,24.29134053917148,-49.03,35.71,84.74000000000001,5.52,28.890399195447305,796.875,804.6630859375,0.03225804701500421,0.4985123267588833,0.28855482821967976,64.90936057905496,0.22340371130749004,65.03076195155643,0.0,0,0.0,0.0,0.0,35.93333333333332,0.012736648783030524,1.0486113955653212e-05,75.09200000000001,0.3582959670440063,1.0999999999999943,0.0006205557238920684
S084,10107.0,10136.984375,W,-0.11697395833333338,24.75586189966237,-48.6,36.32,84.92,5.695,24.174338471334963,828.125,831.6569010416666,0.032258047015004204,0.495674650728681,0.2957874817753449,64.90856229769257,0.23362815161827438,65.68104749469211,0.0010416666666666667,1,0.0,0.0,0.0,35.937999999999995,0.009797958971134245,-9.722224859546024e-07,74.49466666666667,0.5466487801951895,1.7299999999999898,-0.0009838197113226205
S084,10137.0,10166.984375,W,0.15824479166666663,23.675101783758546,-48.16,34.88,83.03999999999999,6.59,18.22309120297868,781.25,776.5950520833334,0.032258047015004204,0.49190936806376123,0.3259334884434075,64.8933610830382,0.251288041409382,65.03076195155643,0.0,0,0.0,0.0,0.0,35.952,0.015790292376435755,1.0069447175956432e-05,73.86533333333334,0.30610165341308226,0.980000000000004,0.0005326390333764755
S084,10167.0,10196.984375,W,0.03214583333333341,24.183921474719504,-45.63,35.43,81.06,5.78,18.13346811132271,796.875,790.2994791666666,0.03225804701500421,0.48302792074808903,0.3421680772011842,64.88697968432689,0.2655041350896531,65.03076195155643,0.0,0,0.0,0.0,0.0,35.95933333333334,0.013399834161493434,-3.8888899438173e-06,75.68633333333334,0.671309582499427,2.1700000000000017,0.0012087156056628696
S084,10197.0,10226.984375,W,-0.07038020833333328,26.028400994779243,-52.74,39.94,92.68,5.6899999999999995,29.02309754670136,812.5,812.7685546875,0.0,0.48669359942598617,0.36890886408434265,64.86428389649056,0.2844724863239949,65.03076195155643,0.0,0,0.0,0.0,0.0,35.97066666666668,0.01314872194887717,4.930556893055433e-06,76.05166666666668,0.5519304505299764,1.6299999999999955,-0.0009854516562097595
S084,10227.0,10256.984375,W,-0.1765156249999999,24.966882754435208,-53.85,41.33,95.18,5.325,20.601225743044647,796.875,799.0234375,0.05581428468591172,0.4986690184185856,0.3992166265707825,64.82995350754119,0.3011143914104095,65.56675987114203,0.0010416666666666667,1,0.0,0.0,0.0,35.988000000000014,0.008717797887082058,6.7361129383992014e-06,74.77833333333334,0.1285841704444561,0.5100000000000051,-0.00021184033524314656
S084,10257.0,10286.984375,W,0.11999999999999995,24.431497361670925,-48.62,36.01,84.63,5.76,15.729596466861702,781.25,784.9934895833334,0.03225804701500421,0.49369285885952296,0.41197356981027583,64.80188259743548,0.31683880473970083,65.56675987114203,0.0010416666666666667,1,0.0,0.0,0.0,35.998333333333335,0.013186693629901753,1.2673614549048857e-05,74.99600000000001,0.3515641240703236,1.1300000000000097,0.0006256251697116903
S084,10287.0,10316.984375,W,0.07279687499999997,24.66956136534941,-47.78,36.32,84.1,5.985,18.615321976704568,781.25,780.1350911458334,0.0,0.4896841651485397,0.4112552241309525,64.79946313249125,0.3135725448875077,65.03076195155643,0.0,0,0.0,0.0,0.0,36.03766666666666,0.01874092372916013,2.1701394775767897e-05,76.21566666666668,0.25943121546096876,0.9200000000000017,0.0004667015154897777
S084,10317.0,10346.984375,W,-0.18931250000000005,23.253990297058202,-47.66,36.03,83.69,6.095000000000001,34.877852177028316,781.25,783.8541666666666,0.07880950133074056,0.47981726664950275,0.42163187438807326,64.78723326151695,0.32408535572325076,65.56675987114203,0.003125,3,0.0,0.0,0.0,36.06733333333333,0.009977753031397852,-5.555557062603894e-07,76.73266666666669,0.08891694001832343,0.3200000000000074,9.006946887734905e-05
S084,10347.0,10376.984375,W,0.2758229166666667,23.359226459391618,-44.95,33.92,78.87,6.275,32.05617436337495,765.625,778.3610026041666,0.07198059875565237,0.48302792074808903,0.43771819955562985,64.76756747148218,0.3302708388629626,65.03076195155643,0.0,0,0.0,0.0,0.0,36.04533333333333,0.014313940369055372,-1.1041669661910986e-05,76.62233333333333,0.16800165343101645,0.5,-0.0001630903220188584
S084,10377.0,10406.984375,W,-0.2807395833333333,22.70683677732729,-47.09,36.12,83.21000000000001,5.17,28.716711730906912,781.25,781.7138671875,0.06441510347391796,0.48218141288373556,0.44385146531682074,64.75788174439676,0.34168988677656464,65.56675987114203,0.0010416666666666667,1,0.0,0.0,0.0,36.03166666666666,0.017527755766845714,7.951391045842294e-06,77.30133333333333,0.17600631301809125,0.6500000000000057,0.0002033333884910454
S084,10407.0,10436.984375,W,0.2577500000000001,22.542212010655327,-43.93,35.05,78.97999999999999,6.609999999999999,24.24078591727881,796.875,795.3287760416666,0.032258047015004204,0.49620849777476506,0.4618050334165803,64.73510842689053,0.352236131110097,65.03076195155643,0.0,0,0.0,0.0,0.0,36.02166666666666,0.022373098926066124,-2.7118062911800407e-05,77.10600000000001,0.30724149025373027,1.0300000000000011,-0.0004715973501511898
S084,10437.0,10466.984375,W,-0.3058281249999999,22.255333125868408,-43.74,32.8,76.53999999999999,5.73,19.90427307554042,781.25,783.1136067708334,0.07198059875565237,0.4772959406181406,0.47981726664950275,64.68938654350065,0.36363025024242907,65.56675987114203,0.0010416666666666667,1,8.54e-05,0.00035979659531463055,2.1072010924482132e-07,35.997,0.01187434208703795,-4.548612345001605e-06,76.06300000000002,0.12206965224821309,0.44999999999998863,-0.0002045486665984869
S084,10467.0,10496.984375,W,0.1645260416666667,22.933316673118398,-44.82,34.68,79.5,6.07,16.149737798650765,781.25,786.62109375,0.06441510347391795,0.4613713236254383,0.4871793817476268,64.66252831050123,0.3653411560368945,65.03076195155643,0.17291666666666666,128,0.0032558749999999997,0.0024855792502704475,3.838275129740431e-06,35.991333333333344,0.008459051693633122,3.263889774275622e-06,76.19266666666665,0.1842269132226762,0.5300000000000011,0.0003272223109869547
S084,10497.0,10526.984375,W,-0.08952604166666672,22.582275930065453,-44.59,31.38,75.97,5.67,22.571319763001043,812.5,813.8997395833334,0.06454972243679027,0.4465142774872938,0.4679843283671177,64.70376665374131,0.35747608525215047,65.68104749469211,0.0010416666666666667,1,0.010140858333333332,0.0021847080594282055,3.4464377838644163e-06,35.99333333333334,0.012736648783028664,6.388890621985882e-06,75.89866666666667,0.3692671420831029,1.2000000000000028,-0.0006543057330473458
S084,10527.0,10556.984375,W,0.2837604166666666,22.518931351034396,-45.33,33.48,78.81,6.295,21.77585963583928,796.875,798.5026041666666,0.045595976308831845,0.4216318743880733,0.46837484987987976,64.69924968242182,0.35766445863705715,65.56675987114203,0.0010416666666666667,1,0.017281824999999997,0.002052239251250935,3.1004767525164798e-06,36.00333333333333,0.012472191289246521,9.444447006414978e-06,74.90733333333333,0.17264478625843938,0.6499999999999915,-0.0003031945266912232
S084,10557.0,10586.984375,W,-0.16346354166666677,23.27071258698286,-45.83,34.96,80.78999999999999,4.984999999999999,20.310771901233377,796.875,806.8196614583334,0.06441510347391795,0.4155075021885887,0.4706627640891086,64.69485748649565,0.35560718311661765,65.03076195155643,0.0,0,0.023654799999999997,0.002332530248464101,3.7017796500053303e-06,36.018,0.016613247725836208,4.861112429772123e-06,74.61766666666666,0.05444773232702832,0.20000000000000284,8.128474427212378e-05
S084,10587.0,10616.984375,W,0.04069791666666663,22.336961748140958,-46.19,34.15,80.34,5.255,40.63863199514524,812.5,817.0817057291666,0.08507936450096985,0.3952352938440594,0.4746149298086,64.68502338767627,0.3620534064296791,65.68104749469211,0.003125,3,0.03136201666666667,0.0023031317373789586,3.7042353798381554e-06,36.03333333333333,0.018856180831640028,1.4166670509620355e-05,74.76666666666667,0.07879650302449183,0.3300000000000125,2.4652784465272486e-05
S084,10617.0,10646.984375,W,-0.008031250000000097,22.97010637897708,-45.48,32.48,77.96,4.8149999999999995,52.85279529352688,843.75,842.7001953125,0.08507936450096985,0.4083426338226542,0.4833052703778432,64.66518305754357,0.3659122859996496,65.56675987114203,0.0010416666666666667,1,0.039527525,0.0029178311636170796,4.77011392418455e-06,36.01666666666666,0.015347819244295563,-1.3472225876797785e-05,73.291,0.6648074909325254,2.0600000000000023,-0.001188785044700804
S084,10647.0,10676.984375,W,0.037578124999999955,22.961594534387302,-45.56,33.62,79.18,5.915,13.157342591050117,781.25,785.2457682291666,0.07198059875565237,0.39842898956052664,0.4898979485566356,64.64112856108338,0.3687230435222448,65.03076195155643,0.1125,100,0.048900175000000004,0.0034438913302215273,5.913228817607645e-06,36.02366666666665,0.017026123718829545,1.5798615396759708e-05,72.77700000000002,0.24262659925627827,0.9500000000000028,0.00042197928113587213
S084,10677.0,10706.984375,W,-0.07750520833333345,23.78356629488307,-54.44,47.82,102.25999999999999,5.33,32.416252046955535,796.875,804.1748046875,0.07880950133074055,0.38436088501635485,0.4992083576774332,64.58575534159748,0.3777657413168786,65.03076195155643,0.09895833333333333,83,0.059958725000000004,0.0034972759898776943,5.927675436109874e-06,36.05100000000001,0.01868154169226949,1.7256949125691614e-05,74.91033333333333,0.7144577586455962,2.25,0.0012553128405254018
S084,10707.0,10736.984375,W,0.12944270833333327,23.101097677560173,-47.37,33.82,81.19,6.539999999999999,22.812878505405955,796.875,795.6298828125,0.06441510347391795,0.29860606423383673,0.49352469367184537,64.61408033602802,0.37332603621612437,65.68104749469211,0.058333333333333334,56,0.07307802499999999,0.004832367538213022,8.424842346148638e-06,36.07399999999999,0.009521904571391954,3.194445310993693e-06,75.22733333333332,0.23515857533918544,0.7000000000000028,-0.0003970834410491102
S084,10737.0,10766.984375,W,-0.04279687499999998,23.7519772694557,-47.85,35.5,83.35,5.785,34.44071951246118,796.875,810.0911458333334,0.045595976308831845,0.2363252195069329,0.49553562491061676,64.59794171654117,0.3745677326577256,65.03076195155643,0.03958333333333333,33,0.09100039166666665,0.004967856290352733,8.699799886013422e-06,36.082,0.014236104336042577,7.2222241813752445e-06,74.92766666666667,0.08931902870547284,0.25,3.392362031348227e-05
S084,10767.0,10796.984375,W,-0.241890625,24.07961793756884,-47.26,34.27,81.53,5.3,23.501633388938576,796.875,804.4840494791666,0.0,0.22634628092568448,0.4958114490968875,64.59440328295915,0.37436326177725576,65.03076195155643,0.034375,29,0.10842127500000001,0.005592650230380495,9.737788448835843e-06,36.10200000000001,0.013266499161420532,1.3472225876796209e-05,74.95766666666667,0.16666699999966697,0.6300000000000097,-0.0001192014212243459
S084,10797.0,10826.984375,W,0.7692604166666667,24.0959636893751,-69.15,42.37,111.52000000000001,6.5600000000000005,19.168064232335265,796.875,794.6614583333334,0.6558497456650333,0.7244422842876367,0.7215968680160381,64.58482482642857,0.42129024777232377,66.12866246946176,0.09270833333333334,70,0.140092675,0.03678154005185266,4.564350087985591e-05,36.107333333333344,0.012364824660660214,-1.2916670170536903e-05,74.55766666666666,0.09618327412924715,0.36999999999999034,0.00016684032303610936
S084,10827.0,10856.984375,W,-0.7435312500000009,105.33202659195243,-491.01,627.18,1118.19,2.16,109.75095048211398,687.5,767.7083333333334,8.667996442453635,4.8011499228411125,5.281714723143107,64.62903305390445,3.0375365321250825,84.22588675698226,0.06145833333333333,23,0.21565764999999998,0.018366386192648243,-2.8011787112572447e-05,36.06933333333333,0.02220110107379609,-3.1597230793520114e-05,74.63566666666665,0.6129637473420068,2.0,-0.0009066321903841655
S084,10857.0,10886.984375,W,0.02247916666666665,21.954016486634043,-44.75,33.27,78.02000000000001,4.72,22.323466344187146,828.125,832.6904296875,0.0,0.4242589536146789,0.48789046862487484,64.46275446114346,0.36250832036045444,64.93843238021688,0.2989583333333333,206,0.20531395,0.0026262235714995773,4.335051957208103e-06,35.96833333333334,0.026593650035717495,-4.142362234798768e-05,72.13233333333332,0.512560131973693,1.8200000000000074,-0.0009178127489726434
S084,10887.0,10916.984375,W,0.21497395833333358,25.223911774497925,-49.41,35.95,85.36,6.59,29.95350661145507,796.875,802.0182291666666,0.0,0.496706819895354,0.4587107820808469,64.37266543759961,0.3439153852364041,64.93843238021688,0.30104166666666665,210,0.21131329999999995,0.0029301659697020567,4.623054639500496e-06,35.92666666666666,0.01164283279771714,-7.569446497789404e-06,71.38966666666667,0.6324686202141222,2.230000000000004,0.0008470488408878142
S084,10917.0,10946.984375,W,-0.15390104166666665,29.559754640681486,-59.98,59.94,119.91999999999999,6.1,23.38780538909046,765.625,777.1484375,0.0,0.4996863165332382,0.46679685683984157,64.37850661181783,0.3484653480551602,64.93843238021688,0.32083333333333336,194,0.21937251666666668,0.002714419563440565,4.317920008116316e-06,35.93666666666666,0.013984117975603644,1.38888926564938e-05,74.69266666666665,0.7677062516932432,2.530000000000001,0.001352292033499357
S084,10947.0,10976.984375,W,0.06284375000000005,31.871903482543775,-62.56,48.56,111.12,7.205,31.207857326108098,828.125,815.0390625,0.0,0.49567465072868105,0.4475579959315018,64.34070505339213,0.33498492364273785,64.93843238021688,0.27708333333333335,197,0.22958789999999998,0.0028487653097438556,4.512412682403616e-06,35.956,0.012806248474864593,1.3680559266643797e-05,75.61566666666667,0.09290437138381832,0.29999999999999716,-0.00013795142631061068
S084,10977.0,11006.984375,W,0.2269739583333334,32.58922204821181,-63.59,48.18,111.77000000000001,7.654999999999999,22.021520463754612,812.5,813.232421875,0.0,0.4907300400650262,0.4535689874637472,64.34640565819086,0.3361480897007849,64.93843238021688,0.28958333333333336,195,0.237882375,0.003165547011872517,5.080912185577311e-06,35.96333333333334,0.012995725793077612,-1.8055560453440388e-06,74.514,0.45047826436651295,1.4699999999999989,-0.0007877779914762334
S084,11007.0,11036.984375,W,-0.248484375,33.77192434560051,-68.93,58.1,127.03,7.25,39.320113227397066,796.875,811.9710286458334,0.0,0.48358021711903065,0.4655853823563288,64.36346622617204,0.34678093817119526,64.93843238021688,0.3177083333333333,214,0.243998925,0.002696778646714443,4.067690990584572e-06,35.977666666666664,0.015423647068345816,1.3298614718591446e-05,73.875,0.04240676046733177,0.13000000000000966,-2.8437507714168842e-05
S084,11037.0,11066.984375,W,-0.1842864583333335,35.72180733942538,-125.32,92.49,217.81,7.745,16.97306330224072,828.125,821.8424479166666,0.04564354645876384,0.3886352099191334,0.49093231705659346,64.40610064395618,0.363764814938129,64.93843238021688,0.40625,238,0.251054325,0.000999068225585723,-1.042480751541032e-07,35.98633333333333,0.009826268648656279,9.375002543135021e-07,73.87366666666667,0.06395223912334298,0.21999999999999886,-9.545141478174715e-05
S084,11067.0,11096.984375,W,0.0011458333333331794,33.33086099434826,-65.97,51.25,117.22,7.135,50.502508320430024,828.125,838.0777994791666,0.0,0.37174367429049826,0.49834687655788523,64.44367378889193,0.3713604595037918,64.93843238021688,0.459375,247,0.2532,0.0013770336234093994,1.7307960424251466e-06,35.97766666666667,0.01256538454998122,-8.576391215383946e-06,73.50499999999998,0.20473967210419505,0.8599999999999994,-0.0002449653442288791
S084,11097.0,11126.984375,W,0.09418229166666675,34.961818023948446,-73.48,54.95,128.43,7.57,23.165650709090986,812.5,809.7005208333334,0.0,0.4007791348493027,0.49975579974123363,64.46620555761541,0.37361879406151577,64.93843238021688,0.10833333333333334,93,0.256071575,0.001451132659123547,1.9612537872324597e-06,35.97133333333334,0.010241527663824933,-2.7777785313040446e-07,72.49466666666667,0.11649701951361449,0.4200000000000017,2.1597228080844e-05
S084,11127.0,11156.984375,N1,0.039859375000000134,36.97470726770271,-72.66,62.59,135.25,7.109999999999999,26.163431959811582,828.125,832.32421875,0.0,0.39684082311285573,0.4999121016488799,64.47020946295589,0.37278251379595134,64.93843238021688,0.103125,90,0.25907125000000003,0.001356187224353632,1.5862387115447911e-06,36.00233333333334,0.019267128022157885,2.2604172798440815e-05,72.72366666666667,0.21851747959577328,0.6499999999999915,-0.0002862153554186629
S084,11157.0,11186.984375,N1,0.3023177083333334,36.73610587823617,-73.84,59.43,133.27,7.99,22.772722736510396,796.875,806.0953776041666,0.0,0.4330127018922193,0.49749371855330987,64.52025672640251,0.369421113515177,64.93843238021688,0.13541666666666666,110,0.26568972499999993,0.002695043478197524,3.5043961329199542e-06,36.04666666666666,0.01795054935711474,2.0208338815195484e-05,73.15133333333333,0.12349718845202731,0.480000000000004,5.312501441108235e-05
S084,11187.0,11216.984375,W,-0.23287500000000003,32.53756628346751,-72.04,52.86,124.9,7.17,37.76804879766281,812.5,806.7708333333334,0.07198059875565237,0.36210317120569685,0.4951051638428839,64.52040410518447,0.3648000873000522,64.93843238021688,0.07708333333333334,65,0.2666825083333333,0.000954212161906652,6.254190064613132e-08,36.06933333333333,0.013148721948878669,6.944446328269315e-08,73.95166666666667,0.5570462777503803,1.4099999999999966,0.0009737849863783023
S084,11217.0,11246.984375,N1,0.030869791666666656,34.85320073811556,-69.59,50.85,120.44,7.140000000000001,19.04805259551783,812.5,810.1725260416666,0.03225804701500421,0.4287201864431962,0.4866935994259861,64.5662906510442,0.36278308241021195,64.93843238021688,0.15208333333333332,126,0.2678456916666666,0.0014451074515748773,1.3146507472468479e-06,36.062000000000005,0.015143755588801596,6.944446328246196e-06,74.54766666666666,0.040880584905575654,0.11999999999999034,4.895834661413125e-06
S084,11247.0,11276.984375,N1,0.07712500000000008,37.81683638172124,-73.57,65.97,139.54,7.449999999999999,15.733637900556532,812.5,818.5221354166666,0.04559597630883184,0.43420885111762614,0.4981737481374679,64.52835312596282,0.3679576756146301,64.93843238021688,0.1375,118,0.2689982583333333,0.0010324341584804393,8.797400389919766e-07,36.082,0.016000000000001256,1.5000004069012654e-05,74.02633333333331,0.2705855789866797,0.75,-0.0004382987300072559
S084,11277.0,11306.984375,N1,-0.2786041666666666,39.38178094295825,-76.23,68.66,144.89,6.32,18.947813517866624,828.125,823.8525390625,0.0,0.43886196735293537,0.4959460218584501,64.53141835288048,0.37249657562792043,64.93843238021688,0.1625,130,0.2706312833333333,0.0011805687978211578,9.176413079539151e-07,36.112,0.020231987873990633,2.7569451923135995e-05,73.73866666666665,0.12376680581731797,0.3999999999999915,-0.00018680560622981454
S084,11307.0,11336.984375,W,0.4498541666666666,230.74680154717112,-1047.51,1918.84,2966.35,1.53,9.669448276942628,812.5,809.1796875,45.127120205942646,19.916696930547086,36.441271468982,63.428569672604084,3.0439296346897042,88.02272433866155,0.06354166666666666,22,0.2131695083333333,0.2346879344235658,-0.00017474448902574026,36.11133333333333,0.060813010303899115,-7.270835305673685e-05,73.29299999999999,0.11821308444217815,0.38000000000000966,-0.00014982642953190712
S084,11337.0,11366.984375,W,0.20336458333333443,101.60532201054765,-398.13,252.34,650.47,19.595,25.26033145850843,812.5,825.7893880208334,0.45871078208084687,0.4788903188622631,0.4717715118306743,62.47824947704034,0.45139666743741064,63.45076831686122,0.26666666666666666,133,0.14841079166666665,0.0625220481131651,8.575842322005838e-05,35.841,0.04657252408877927,-7.961807715333997e-05,72.86533333333333,0.745384613620525,2.219999999999999,0.0008165279992751724
S084,11367.0,11396.984375,W,-0.6503645833333334,47.01980196741134,-132.01,82.67,214.68,12.285,31.642181190766077,859.375,853.7027994791666,0.07880950133074056,0.2986060642338367,0.4856937692620732,62.55747071303315,0.2801481536604048,63.45076831686122,0.08229166666666667,55,0.17837128333333332,0.002437492311725763,-4.121452072876531e-06,35.735666666666674,0.027041120949810447,-4.350695624646343e-05,72.79666666666667,0.43000258397156493,1.3500000000000085,-0.0007670140969547799
S084,11397.0,11426.984375,W,0.19120312500000078,99.89968019041024,-674.08,419.41,1093.49,7.33,24.16030092914764,875.0,868.9860026041666,9.74550905964369,9.570367077508775,27.697655837433047,62.99199439612994,2.7134495876282787,81.91458966508958,0.08958333333333333,57,0.19788465000000002,0.02113154927261211,2.6985208709095247e-05,35.763999999999996,0.09361623790774701,0.0001372917039094237,71.68699999999998,1.0806391627180647,2.799999999999997,-0.0015936462656375508
S084,11427.0,11456.984375,W,-0.22327604166666656,196.94564448341146,-751.08,1045.89,1796.9700000000003,3.14,0.0,890.625,890.625,51.03867810128304,11.557296079314163,17.91389404418785,63.94268729340147,4.103153262830322,106.44247272588137,0.05520833333333333,23,0.22419737499999998,0.00978401887779463,9.423262321848506e-06,35.85466666666667,0.025785439474417252,-4.305556723513264e-06,69.96033333333334,0.2344139263970653,1.0499999999999972,-0.0002907986899953047
S084,11457.0,11486.984375,W,0.22607812499999996,26.175571865452717,-55.08,38.38,93.46000000000001,6.81,41.98384677744123,843.75,839.8763020833334,0.04559597630883185,0.4717715118306743,0.4141054092022411,64.53594453528169,0.20763655517906096,64.69157595854347,0.0,0,0.2350962,0.0012368267097697967,1.5000603027507217e-06,35.88133333333334,0.018208667044996255,5.90277937900816e-06,68.49033333333334,0.3401125630663414,1.1000000000000085,0.0001880903288005454
S084,11487.0,11516.984375,W,0.1903489583333332,52.84170180766618,-307.87,318.18,626.05,6.2,36.27593052087805,859.375,871.1100260416666,2.1325842495895024,0.677060095755088,2.9857283144499824,64.51573863495162,0.3318032347827808,67.54257916307313,0.0125,6,0.236942975,0.0010902619521816796,7.033270137063335e-08,35.937999999999995,0.025612496949732257,3.7777788025659986e-05,69.04466666666667,0.18023564821890511,0.8499999999999943,-0.00019479171950730257
S084,11517.0,11546.984375,W,-0.10229687500000004,34.03568931689865,-68.59,53.17,121.76,7.765,26.843765945637074,828.125,827.6123046875,0.06441510347391795,0.07880950133074056,0.3121091305537215,64.33536218018659,0.19291140682817254,65.19202405202648,0.004166666666666667,4,0.23639855000000004,0.0007730351204828933,-3.119102408610672e-07,35.98533333333334,0.012310790208413722,8.12500220404819e-06,69.604,0.1666453319678252,0.5699999999999932,0.00016659726741462258
S084,11547.0,11576.984375,W,-0.39510416666666665,35.86341856162975,-70.72,60.48,131.2,6.33,41.48590295807022,843.75,849.12109375,0.0,0.1356408400888169,0.3013838885273878,64.33811506486195,0.18163580938788154,64.48255578061404,0.0,0,0.236088975,0.0009027162756785736,-1.1647984930551457e-07,36.009,0.017578395831246534,5.4513903676727495e-06,70.19,0.3169016671882104,1.2000000000000028,0.0005621529302715212
S084,11577.0,11606.984375,W,0.18253645833333332,34.781368295302336,-69.19,54.08,123.27,8.02,24.68327589421154,843.75,833.9029947916666,0.03225804701500421,0.2304038573895845,0.2810396589995006,64.35090652994124,0.17198480969685656,65.19202405202648,0.0010416666666666667,1,0.23580075000000003,0.0009864993854534264,-2.0293625296664549e-07,36.01899999999999,0.016999999999999932,1.052083618729283e-05,71.56633333333333,0.19674828814728892,0.8999999999999915,3.5312509579130794e-05
S084,11607.0,11636.984375,W,0.09189583333333343,36.21567136684959,-80.67,63.09,143.76,7.84,24.823983764336607,828.125,825.146484375,0.045595976308831845,0.2200827456448041,0.37544967252245964,64.30123214717972,0.23157652695461373,65.19202405202648,0.0020833333333333333,2,0.2354805,0.0009548010263924018,-5.943530258119024e-07,36.019666666666666,0.015380362660079375,3.47222316412489e-08,71.69533333333334,0.2832988214275202,0.8800000000000097,0.0004981251351250896
S084,11637.0,11666.984375,W,-0.09421354166666651,35.29755980125468,-79.59,55.0,134.59,8.395,26.435507342287043,812.5,813.4521484375,0.0,0.24016912082368583,0.31598061649411346,64.3348794447969,0.19190750406771576,64.48255578061404,0.0,0,0.23498945000000002,0.0006788494291814532,-8.89583574648275e-09,36.01666666666666,0.018318175552045166,1.4513892826034343e-05,72.92966666666668,0.46024981139473553,1.230000000000004,0.0008128821649528458
S084,11667.0,11696.984375,W,-0.0083124999999999,38.09080260085555,-73.01,64.05,137.06,8.405000000000001,15.845200959797042,812.5,811.8326822916666,0.0,0.27161545721335933,0.29292696461272083,64.34711801400482,0.17814776190187168,64.48255578061404,0.0,0,0.23537375,0.0009536067782372272,2.896706514948591e-07,36.04200000000001,0.020066555924389193,2.5625006951227157e-05,73.76433333333333,0.16776339158337167,0.519999999999996,0.00030156258180408664
S084,11697.0,11726.984375,W,-0.17131770833333332,39.12808940522432,-74.73,58.36,133.09,8.375,29.974512646916192,812.5,814.9739583333334,0.0,0.2900232719350102,0.29292696461272083,64.3481848999089,0.17869924585928854,64.48255578061404,0.0,0,0.23575805000000002,0.0009333149508606351,2.3017974994024914e-07,36.06866666666667,0.017074997966489158,1.902778293939623e-05,73.99399999999999,0.08739183791025985,0.28000000000000114,-0.00013666670373987976
S084,11727.0,11756.984375,W,1.3003802083333331,182.77711951026592,-1338.39,1200.85,2539.24,8.1,26.196136110745496,765.625,786.9466145833334,14.387123473147689,8.611457703318392,17.552210682030594,64.72174729321502,6.405857526244907,110.64357188738983,0.075,37,0.18763305833333332,0.1084286252041941,-0.00010035738551361367,36.02366666666668,0.0908288989743298,-0.00014607642851465776,73.66766666666666,0.19355762851294592,0.6299999999999955,-0.000256423680670487
S084,11757.0,11786.984375,W,-1.2419947916666672,90.21039745788947,-691.67,616.81,1308.48,9.51,98.44536724643554,906.25,910.107421875,0.045595976308831845,0.2221950938302244,0.4975973086716026,64.17630592536935,0.33022634672224493,64.56779382943171,0.0020833333333333333,1,0.100799675,0.0018484226706505739,-2.410195315265656e-06,35.854000000000006,0.02059126028197294,-1.3680559266646214e-05,70.88666666666667,1.6827127568965,4.650000000000006,-0.002990903589112299
S084,11787.0,11816.984375,W,0.25508333333333316,33.1727283775979,-71.09,48.38,119.47,9.15,34.838006040805354,890.625,891.9677734375,0.0,0.0,0.4827481640882289,64.22978592040022,0.3198577072569597,64.47480127925948,0.0,0,0.09827012499999999,0.0015423878757870886,-9.53684069467251e-07,35.809999999999995,0.02049390153191882,-3.055556384428264e-05,67.34133333333334,0.7933630246544718,2.450000000000003,-0.0014030559361588402
S084,11817.0,11846.984375,W,-0.0685833333333333,35.50259726375272,-81.3,57.23,138.53,8.620000000000001,27.140078641421,875.0,879.443359375,0.0,0.0,0.4587107820808469,64.27533807162476,0.3039310969261627,64.47480127925948,0.0,0,0.096754325,0.001535085785672906,-1.2317952560208486e-06,35.76933333333333,0.015040685563571713,-1.6597226724507824e-05,66.73233333333334,0.7072796869383116,1.9699999999999989,0.0012296183891108918
S084,11847.0,11876.984375,W,0.12251562500000013,38.401251734356016,-77.42,55.93,133.35,10.365,19.942262809441385,828.125,834.4075520833334,0.0,0.0,0.46517619123176207,64.26498530998282,0.30821492667701383,64.47480127925948,0.0,0,0.094896875,0.0016829637724487714,-8.331506166315697e-07,35.745333333333335,0.01231079020841349,6.250001695420967e-07,68.64000000000001,0.6260138443623537,1.9500000000000028,0.0011259725276618186
S084,11877.0,11906.984375,W,-0.46438020833333354,41.91137312745024,-90.99,72.36,163.35,9.815,29.16579018138723,812.5,827.099609375,0.0,0.0,0.4030913530316532,64.3395251938048,0.26707895666330544,64.47480127925948,0.0,0,0.09423502499999999,0.0015844735322418611,-1.0249670749151127e-06,35.74933333333333,0.009637888196535481,2.5694451414514483e-06,71.05799999999999,0.7059716708197297,2.299999999999997,0.001256875340949258
S084,11907.0,11936.984375,W,0.5296406249999998,44.39165519162469,-92.49,76.33,168.82,12.795,21.372554584637292,828.125,822.5016276041666,0.0,0.0,0.38693955887479664,64.35332887599405,0.25637715346358514,64.47480127925948,0.0,0,0.09344507499999999,0.001483748199451309,-9.143251178182277e-07,35.76733333333333,0.01339983416149506,6.666668475116114e-06,72.53833333333336,0.19736739570883885,0.6700000000000017,0.0003396875921461595
S084,11937.0,11966.984375,W,-0.10046354166666652,44.77937367950649,-90.61,63.17,153.78,11.98,35.88942754040752,828.125,834.7900390625,0.0,0.0,0.39197129111142254,64.34918777133728,0.2597110622310641,64.47480127925948,0.0,0,0.09353047499999999,0.0015183663093519303,7.75883674013583e-07,35.79533333333334,0.01995550606279437,2.944445243176391e-05,72.71466666666667,0.05314968380798527,0.20000000000000284,-8.22916889897143e-05
S084,11967.0,11996.984375,W,0.10028645833333348,40.47272988501054,-89.81,64.62,154.43,11.48,31.35594423140886,812.5,810.6526692708334,0.03225804701500421,0.0,0.41197356981027583,64.33203003584048,0.27255543971982843,64.56779382943171,0.0,0,0.0931355,0.0015336375386642042,3.9030479337695175e-07,35.827666666666666,0.016669999666732615,2.142361692263808e-05,72.44466666666668,0.1560284874274218,0.6000000000000085,0.00010145836085567473
S084,11997.0,12026.984375,W,-0.2389166666666668,45.60228067982334,-106.66,124.21,230.87,10.55,30.09154005465074,828.125,825.0813802083334,0.2540556451514773,0.032258047015004204,0.500077033996319,64.34049395772726,0.26771366979585537,65.22269543648132,0.0010416666666666667,1,0.093829375,0.0014454675314150096,-5.596036674272109e-07,35.84066666666668,0.012364824660660521,4.583334576643273e-06,73.29133333333333,0.24758477784836067,0.7000000000000028,0.0004344445622950738
S084,12027.0,12056.984375,N1,-0.36655208333333333,44.3501277782286,-94.79,67.7,162.49,10.695,37.11952472218072,859.375,855.56640625,0.032258047015004204,0.0,0.11110243021644486,64.46574721598475,0.07731462619202119,64.47480127925948,0.0,0,0.09326359999999999,0.001377695499738604,-3.7140114241567455e-07,35.856666666666676,0.017191729277634977,1.3125003560383802e-05,72.966,0.39168524778619584,1.5499999999999972,-0.0006711112931617015
S084,12057.0,12086.984375,N1,0.6012656249999999,43.95673294218164,-92.84,64.01,156.85000000000002,12.05,36.57987770321991,828.125,840.7063802083334,0.0,0.0,0.09090593428863095,64.4692798063838,0.06023215804980074,64.47480127925948,0.0,0,0.09200395,0.0016134442343942344,-6.972111266306217e-07,35.873666666666665,0.014487542541400276,7.395835339582373e-06,71.087,0.3713322860547756,1.2199999999999989,-0.0006463543420015011
S084,12087.0,12116.984375,N1,-0.07947395833333323,43.410195210490166,-104.64,87.02,191.66,10.96,26.714929774814376,828.125,831.3802083333334,0.0,0.0,0.09090593428863097,64.4692798063838,0.060232158049800734,64.47480127925948,0.0,0,0.09180112499999998,0.001411968009331301,9.924416754670312e-08,35.88566666666666,0.020113566455392834,-1.736111582066832e-07,71.12866666666667,0.19319650330399027,0.7999999999999972,0.0003269445331338244
S084,12117.0,12146.984375,W,0.15992187500000057,81.79422017162018,-635.26,433.37,1068.63,10.370000000000001,19.30881743314711,796.875,803.9794921875,7.733319582872114,12.244682049700756,5.498175202333548,64.18401687699927,2.1458531791354436,90.33825324855468,0.030208333333333334,11,0.091544925,0.0020555681986679495,-4.0392654186375533e-07,35.89866666666665,0.013349989596332776,1.0902780735345326e-05,72.16933333333333,0.2686997498241395,0.9299999999999926,0.0004077778883946082
S084,12147.0,12176.984375,N1,-0.4202500000000002,29.817047298902686,-72.67,71.34,144.01,6.279999999999999,66.71874426256801,921.875,897.1598307291666,0.032258047015004204,0.0,0.3852251776558744,64.29250753282427,0.27297767014357294,64.42049363362563,0.0,0,0.091758425,0.0015571967584011334,-1.431673565449644e-07,35.90999999999999,0.016329931618554464,2.083333898473185e-06,72.08133333333333,0.4214714963342381,1.6099999999999994,-0.000680902962484526
S084,12177.0,12206.984375,N1,0.07174479166666671,30.076968156150954,-61.45,42.36,103.81,8.260000000000002,48.6202170910686,828.125,836.5885416666666,0.0,0.0,0.27638539919628335,64.36130930955564,0.1962921964109132,64.42049363362563,0.0,0,0.09191854999999999,0.001550045288854489,3.4026571730298357e-07,35.888,0.013012814197295457,-1.1319447515041562e-05,69.51566666666668,0.5720529307289274,2.089999999999989,-0.0007657988188473367
S084,12207.0,12236.984375,N1,0.13721875000000003,34.53164070478911,-75.83,49.38,125.21000000000001,9.719999999999999,27.276703515775143,812.5,815.625,0.032258047015004204,0.0,0.3421680772011842,64.32505084345672,0.24435422383308597,65.12296062065974,0.0010416666666666667,1,0.09221744999999999,0.001480865303631629,-1.2565367991907487e-07,35.87499999999999,0.015864005379053997,-4.131945565306455e-06,70.44500000000001,0.6697200907842018,2.5999999999999943,0.0011496183674094957
S084,12237.0,12266.984375,N1,-0.2850260416666666,37.74606655830938,-78.54,52.71,131.25,9.885,32.62758882302852,812.5,806.9417317708334,0.07198059875565237,0.032258047015004204,0.3763632627602694,64.30289715718258,0.26987748973113546,65.12296062065974,0.003125,3,0.0926658,0.0014877748687217422,7.611499460584706e-07,35.88466666666667,0.013597385369581121,4.0277788703834506e-06,73.81633333333333,0.7366794116544553,2.3299999999999983,0.0012091322724425636
S084,12267.0,12296.984375,N1,-0.022802083333333438,38.91976111130218,-80.86,57.28,138.14,11.0,17.609200971018563,812.5,809.3831380208334,0.03225804701500421,0.0,0.3570714214271425,64.31470165435053,0.2528690936949596,64.42049363362563,0.0,0,0.09253769999999999,0.0014692771556108803,-5.787853132555647e-07,35.902666666666654,0.014126413400277081,8.680557910307147e-06,74.20466666666667,0.08800505036012941,0.28000000000000114,8.923613531796393e-05
S084,12297.0,12326.984375,N1,-0.05723958333333332,39.99106531835288,-94.52,70.51,165.03,10.32,31.91351199184347,812.5,813.0533854166666,0.0,0.032258047015004204,0.33306629928922893,64.3302941098831,0.23657571572584105,64.47480127925948,0.0,0,0.09132074999999999,0.0015388300385357698,-1.0469286694142444e-06,35.94266666666667,0.017499206331209806,1.673611565107316e-05,73.89933333333335,0.19207521674825406,0.5499999999999972,-0.00028194452092679124
S084,12327.0,12356.984375,N1,0.20861458333333344,40.81323469677396,-83.49,60.81,144.3,10.620000000000001,27.52921888191464,828.125,828.4749348958334,0.03225804701500421,0.0,0.3487079325484613,64.32062008675753,0.24689401572799247,64.42049363362563,0.0,0,0.091331425,0.001702620669548857,3.96698675319736e-07,35.96900000000001,0.013253930234713447,1.3576392571719927e-05,73.54133333333334,0.22491084653455226,0.730000000000004,-0.00039604177409987407
S084,12357.0,12386.984375,N1,0.2895468750000002,40.72278685480355,-85.56,54.92,140.48000000000002,11.370000000000001,39.75060906200185,812.5,822.2493489583334,0.0,0.032258047015004204,0.36795317627458474,64.30588057620423,0.2613554137384821,64.47480127925948,0.0,0,0.09078699999999999,0.0015366068299991372,-1.0508205975533294e-06,35.98400000000001,0.011135528725661103,-1.3888892656536203e-07,73.06766666666665,0.16764413367474396,0.5899999999999892,-0.0001951042195920703
S084,12387.0,12416.984375,N1,0.12230729166666662,39.21353648932116,-83.46,58.29,141.75,10.625,34.802819594468076,796.875,807.1695963541666,0.0,0.03225804701500421,0.3580894882528978,64.31327861671298,0.2543493051826238,64.47480127925948,0.0,0,0.08999705,0.0014591596545614886,-1.1881500618896657e-06,36.00233333333333,0.015849991237291947,1.0381947260727935e-05,72.95966666666666,0.17394411618550012,0.6799999999999926,0.0002476042338336117
S084,12417.0,12446.984375,N1,-0.12738541666666667,38.31807055393648,-80.96,53.85,134.81,10.559999999999999,41.46429827285363,828.125,842.041015625,0.0,0.0,0.3736070773739289,64.30138518143478,0.26534018810562654,64.42049363362563,0.0,0,0.08961274999999999,0.0014345865562941824,1.8458859173952706e-07,36.00966666666667,0.016428295373802096,-4.548612345001508e-06,73.068,0.24822570374560343,0.75,-0.0002712500735812947
S084,12447.0,12476.984375,N1,-0.023036458333333194,39.74625579062348,-83.02,57.9,140.92,10.62,32.92832594621318,812.5,817.3095703125,0.08523227047636099,0.03225804701500421,0.40232478717449166,64.27998764725385,0.2866119366387066,65.12296062065974,0.0020833333333333333,2,0.08994367499999999,0.0014745030923585746,-9.543563786774035e-07,35.99566666666667,0.00919540948275553,-5.034723587978389e-06,72.938,0.15727682601069887,0.480000000000004,-0.0002285417286625762
S084,12477.0,12506.984375,N1,-0.17738020833333354,40.22043531513272,-95.61,76.1,171.70999999999998,10.05,29.28441100427199,812.5,819.4580078125,0.05581428468591172,0.04559597630883185,0.3560473960919935,64.31701807221945,0.25482601474974453,65.12296062065974,0.0020833333333333333,2,0.088321075,0.0015469176349680027,-2.899486463619383e-07,36.001666666666665,0.011855612829185732,-2.673611836375046e-06,72.88000000000002,0.15079787796915575,0.480000000000004,0.00023562506391739129
S084,12507.0,12536.984375,N1,0.16507812500000021,38.06536403283475,-78.78,53.34,132.12,11.510000000000002,38.23005903901962,843.75,848.4537760416666,0.04559597630883184,0.032258047015004204,0.382617935250035,64.29552331949199,0.2705200041772044,64.47480127925948,0.0,0,0.08913237499999999,0.0014889616127942995,4.973328172018271e-07,35.99233333333334,0.008825468196582528,1.006944717595899e-06,72.77566666666668,0.2885559833993339,0.8599999999999994,-0.0004823959641916163
S084,12537.0,12566.984375,N1,-0.270546875,42.34284764429538,-129.85,125.2,255.05,9.83,32.70030949815863,812.5,812.7766927083334,0.12447371850002001,0.08507936450096985,0.41480835601783894,64.27218874360634,0.2963738172887605,65.19202405202648,0.004166666666666667,3,0.08850255,0.0014808653036316292,-7.405783258947276e-07,35.97866666666667,0.012310790208413747,-5.069445819619489e-06,72.33266666666665,0.22816563184571953,0.6800000000000068,0.0003659723214985707
S084,12567.0,12596.984375,N1,0.2517083333333333,40.63862998273027,-91.78,95.1,186.88,10.325,34.20148947368016,828.125,832.2184244791666,0.09654963281764578,0.08507936450096987,0.43053861413802236,64.26558862668966,0.3023410851362393,65.13831437794502,0.004166666666666667,3,0.088652,0.0015336375386642044,5.003907607396817e-07,35.98466666666666,0.01203698005684579,8.194446667330586e-06,72.81133333333332,0.3419233182389817,0.9300000000000068,0.0005177779182340277
S084,12597.0,12626.984375,N1,-0.19974999999999996,40.80674232536008,-83.55,58.12,141.67,10.155,18.00030135856129,796.875,804.19921875,0.05581428468591172,0.05581428468591172,0.4261919050504779,64.25345149430844,0.30484324149326125,65.12296062065974,0.0020833333333333333,2,0.08889752499999999,0.0014633318657690058,2.493613957686076e-07,35.987,0.011000000000000742,8.993057995079096e-06,73.33266666666667,0.13291434167245475,0.37999999999999545,-1.583333762840271e-05
S084,12627.0,12656.984375,W,-0.11454166666666697,93.581453899566,-400.81,562.18,962.99,7.6899999999999995,15.668038328469567,796.875,801.2044270833334,19.664314362102665,9.713017244556685,6.567038030822106,64.75567914190637,4.933298646659998,103.32956982393762,0.08229166666666667,38,0.09126737499999998,0.003028672652231501,4.142401514323325e-06,35.99066666666667,0.010306416555827196,8.750002373589719e-06,73.85433333333334,0.33390301319727883,1.3400000000000034,0.0005361459787722386
S084,12657.0,12686.984375,N1,0.16230729166666671,42.283025598826164,-266.62,64.8,331.42,8.865,109.27875340999168,906.25,867.8548177083334,0.0,0.0,0.26506476868347145,64.4542635170159,0.17969273516796253,64.50581369148055,0.0,0,0.09358385,0.0015034705775305356,-9.735380245057574e-07,35.993,0.014177446878758163,-1.753472697882093e-05,74.25633333333333,0.6482462666473462,2.339999999999989,-0.0007839238237640569
S084,12687.0,12716.984375,N1,-0.32633333333333314,49.396671831348,-101.07,75.07,176.14,12.155000000000001,54.50962506227373,859.375,879.8990885416666,0.05581428468591172,0.0,0.4382916943942698,64.33227433602774,0.2995475823084171,65.23802572120036,0.0020833333333333333,2,0.09291132499999999,0.0015615813841663836,-8.701239339528866e-08,35.93266666666667,0.019136933459211303,-2.763889638642194e-05,70.74266666666666,1.0229790917815567,3.6499999999999915,-0.0018281254959107757
S084,12717.0,12746.984375,N1,0.5204114583333332,49.53401825899838,-100.62,73.35,173.97,14.05,33.95643291343378,828.125,830.2978515625,0.07880950133074056,0.03225804701500421,0.4516126582100589,64.31701299211203,0.3061286861611068,65.23802572120036,0.0010416666666666667,1,0.09211070000000002,0.0016084926204369093,4.5591158200725744e-08,35.87766666666666,0.017259457954665644,-2.3506950821113418e-05,68.47033333333333,0.55825611406315,2.0200000000000102,0.00015593754230076485
S084,12747.0,12776.984375,N2,-0.4323750000000001,49.65645064135047,-102.39,75.87,178.26,12.879999999999999,52.21806646894385,828.125,843.3675130208334,0.05581428468591172,0.0,0.4287201864431962,64.34357300440354,0.2930239358663098,65.23802572120036,0.0020833333333333333,2,0.09216407499999998,0.0014651996517113278,-3.866908601049434e-07,35.842333333333336,0.01382831234179322,-6.28472392706347e-06,70.786,0.41511123007373874,1.7999999999999972,0.0006933335214120863
S084,12777.0,12806.984375,N1,0.026786458333333426,51.69595277957196,-107.34,76.48,183.82,12.995000000000001,37.86827030972509,828.125,831.591796875,0.08507936450096985,0.0,0.46308966726818207,64.30004891502206,0.3155041348414102,65.23802572120036,0.0020833333333333333,2,0.090968475,0.0013666918633602082,1.915384634164668e-07,35.835,0.009219544457293621,2.7430562996568012e-06,72.02933333333334,0.1714629859636049,0.6499999999999915,8.00000217013978e-05
S084,12807.0,12836.984375,N1,0.36291666666666683,50.47703689791087,-103.66,72.1,175.76,14.675,37.46485652849785,812.5,820.751953125,0.05581428468591173,0.0,0.48491904930101487,64.25177132385006,0.3314841590143689,65.23802572120036,0.0020833333333333333,2,0.09086172499999999,0.0014222609814569897,-5.529317906173469e-07,35.83333333333333,0.011925695879998756,3.888889943817521e-06,71.97000000000001,0.4655605939796298,1.3799999999999955,0.0006481946202784867
S084,12837.0,12866.984375,N2,0.08297916666666669,51.37045308426722,-106.76,76.15,182.91000000000003,14.565000000000001,29.176546875646636,843.75,840.4947916666666,0.08507936450096985,0.07198059875565237,0.49553562491061676,64.21780086580299,0.337098343821171,65.23802572120036,0.009375,7,0.09106455,0.001471602085313825,2.9967846670965335e-07,35.830000000000005,0.008944271909999498,-2.4305562148863826e-06,72.73666666666668,0.09428090415820527,0.3499999999999943,-0.00015770837611446577
S084,12867.0,12896.984375,N2,-0.06271874999999986,50.90632271944941,-105.92,77.4,183.32,12.94,26.129328367641033,812.5,813.0859375,0.045595976308831845,0.07198059875565237,0.4984306970103488,64.19559489115925,0.3378435093879279,64.57553716385176,0.004166666666666667,4,0.089836925,0.0015081247691669949,-4.6286145368420466e-07,35.833,0.009000000000000972,6.8402796333224795e-06,72.67566666666667,0.1177195348652398,0.37999999999999545,7.635418737906883e-05
S084,12897.0,12926.984375,N1,-0.18066145833333327,50.7151364386369,-103.68,76.41,180.09,12.965,18.880894089445423,796.875,800.4313151041666,0.12011279421166313,0.09090593428863095,0.49716972391226727,64.21269179839709,0.3415703988930155,65.23802572120036,0.01875,16,0.09007177499999999,0.0014012741967134776,-3.472155889799224e-07,35.842333333333336,0.017065234314893034,1.579861539675988e-05,73.442,0.6055708051087001,1.7299999999999898,0.0010809030709914998
S084,12927.0,12956.984375,N2,-0.12030729166666647,50.07662623481959,-129.17,118.86,248.02999999999997,11.975,69.05953440716728,796.875,830.7291666666666,0.3282142735698739,0.06441510347391793,0.5145780617138882,64.34166894594259,0.30216538086436745,65.24568951279464,0.007291666666666667,6,0.08943127499999999,0.001491103014340391,-1.7485877139180987e-07,35.87566666666667,0.016058919293927512,1.128472528340098e-05,74.27133333333335,0.3752930706646333,0.980000000000004,-0.0005877779372227488
S084,12957.0,12986.984375,N2,0.21786458333333342,50.87387747248905,-104.4,75.52,179.92000000000002,14.165,18.112095517759034,796.875,805.4117838541666,0.2179449471770337,0.0,0.12827311899051785,64.47965495873356,0.15523016029216283,65.19202405202648,0.00625,6,0.08969814999999999,0.0014224612745168147,1.7958468413213012e-07,35.873000000000005,0.018101565309846395,-1.909722740267562e-06,73.739,0.08772494894080321,0.27000000000001023,-0.00012177086636579336
S084,12987.0,13016.984375,N1,-0.05092187499999999,51.232276590240424,-108.11,79.66,187.76999999999998,13.375,21.71542989234793,812.5,813.1673177083334,0.24816820222829156,0.0,0.13591255358583407,64.47128326868207,0.1782096780548601,65.19202405202648,0.008333333333333333,8,0.08976219999999999,0.0014123311438894216,1.345495156655586e-07,35.885666666666665,0.014985177861992403,9.687502627902599e-06,74.07000000000001,0.5140363151892415,1.3400000000000034,0.0008065974410257806
S084,13017.0,13046.984375,N2,-0.020145833333333217,49.705301460830775,-105.95,76.69,182.64,13.32,38.13569299381899,812.5,813.76953125,0.19982631347136334,0.032258047015004204,0.1064285672672312,64.48355943827228,0.1572540539045732,65.19202405202648,0.009375,8,0.08979422499999999,0.0015930805768620121,-6.949871676939961e-09,35.89533333333332,0.012578641509407735,8.333335593895367e-07,74.151,0.2991248345869441,0.789999999999992,-0.00048420152023695835
S084,13047.0,13076.984375,N2,0.2638385416666668,48.82140032178697,-102.55,69.93,172.48000000000002,13.45,30.095875444153474,828.125,826.953125,0.21137108216357317,0.0,0.07198059875565237,64.47543030945073,0.1518324004546392,65.19202405202648,0.0020833333333333333,2,0.089324525,0.00142226098145699,-3.4999553765069944e-07,35.89133333333333,0.012578641509408312,-1.9444449719095255e-06,73.966,0.13474914965718104,0.5200000000000102,-0.00014222226080247947
S084,13077.0,13106.984375,N2,-0.03449479166666656,49.32238502798634,-101.18,75.03,176.21,12.370000000000001,21.788323964767873,796.875,807.1207682291666,0.17116012950028855,0.0,0.1064285672672312,64.4917934002446,0.1378429788941387,65.19202405202648,0.009375,8,0.08884414999999998,0.0015215526535417691,-7.950653198419398e-08,35.884,0.017813852287849152,5.555557062607345e-07,73.35,0.21579311079519475,0.6500000000000057,0.00023263895199624515
S084,13107.0,13136.984375,N2,-0.7435625000000001,49.732788674997174,-103.26,80.56,183.82,12.094999999999999,44.254671026272874,796.875,803.564453125,0.20684625513624577,0.0,0.09090593428863096,64.4791091186577,0.14327920609050557,65.19202405202648,0.0020833333333333333,2,0.08841714999999999,0.0013735535400922663,-6.505079889615865e-08,35.896666666666654,0.01398411797560116,9.027780226719433e-06,73.777,0.39646059072750106,1.25,0.0005896876599630131
S084,13137.0,13166.984375,N2,0.7122708333333333,48.80023138659266,-102.51,77.85,180.36,14.5,19.161844061463107,812.5,803.9388020833334,0.18998355191963326,0.032258047015004204,0.10152910775842672,64.48588932684173,0.13797122762146324,65.19202405202648,0.005208333333333333,5,0.089132375,0.001687021557175544,7.747716945452715e-07,35.89799999999999,0.011075498483889163,6.527779548549788e-06,74.75266666666667,0.06397568982737499,0.1799999999999926,8.45139118147501e-05
S084,13167.0,13196.984375,N2,-0.0014062499999999052,49.38701668857374,-104.88,74.23,179.11,12.96,30.270597810084972,796.875,803.9876302083334,0.1874276480775686,0.0,0.06441510347391795,64.48226695298216,0.1321247050180702,65.19202405202648,0.0010416666666666667,1,0.088982925,0.0015557324703736825,-5.629396058321418e-07,35.90333333333332,0.012995725793077612,8.750002373590212e-06,74.771,0.12522912334330946,0.3500000000000085,-0.0001593403210016076
S084,13197.0,13226.984375,N2,0.004307291666666953,51.1690657785068,-124.14,100.51,224.65,13.095,30.745162679872184,796.875,794.7916666666666,0.1529193630552463,0.0,0.07880950133074055,64.4927502555443,0.11527998953888487,65.19202405202648,0.004166666666666667,4,0.08908967500000001,0.0013983435090760069,1.8319861740413897e-07,35.90466666666666,0.016275407487644417,1.3611114803362731e-05,75.08500000000001,0.25450278321988345,0.8000000000000114,0.00044739595469725453
S084,13227.0,13256.984375,N2,-0.11277083333333303,49.47772104200013,-104.74,79.14,183.88,12.785,27.72703715458209,796.875,794.2789713541666,0.18998355191963326,0.032258047015004204,0.10152910775842672,64.48586521420953,0.1488150131319951,65.19202405202648,0.008333333333333333,8,0.08864132499999999,0.0014369279624862892,-1.8375460713829417e-07,35.92399999999999,0.013808210118140228,7.638890961069156e-07,75.22366666666667,0.08372507921100156,0.269999999999996,-1.6354171103018326e-05
S084,13257.0,13286.984375,N2,-0.3141510416666667,49.32461663780845,-100.72,81.07,181.79,12.16,38.883429477102425,781.25,798.291015625,0.19249988726547926,0.032258047015004204,0.12401959270615269,64.48870015699313,0.15224014395503785,65.19202405202648,0.011458333333333333,11,0.08836377499999998,0.0014555236254953049,-5.006687556067578e-07,35.93866666666666,0.013349989596335389,4.791667966489874e-06,75.83033333333333,0.15644984996974484,0.5600000000000023,0.00015260420806320862
S084,13287.0,13316.984375,N2,0.11413020833333304,49.791890061636835,-103.96,74.49,178.45,12.98,17.458169685998847,796.875,790.4459635416666,0.17116012950028855,0.045595976308831845,0.11110243021644486,64.49267757256982,0.12811916541732074,65.19202405202648,0.007291666666666667,6,0.088235675,0.0015527997518595233,8.868036259775431e-08,35.948,0.01077032961426924,4.9305568930547675e-06,75.71599999999998,0.06524824390995733,0.21999999999999886,5.305556994779947e-05
S084,13317.0,13346.984375,N2,0.3473385416666667,49.632632891681155,-102.53,77.3,179.82999999999998,13.405000000000001,28.023400880394828,796.875,794.1813151041666,0.1821904480893551,0.045595976308831845,0.12801909579781012,64.49253227909743,0.13597265499733996,65.19202405202648,0.009375,9,0.08841714999999999,0.0014604086679761924,3.519415017202424e-07,35.962,0.01326649916142053,4.583334576642212e-06,75.485,0.14488501187723593,0.4399999999999977,-0.0001803125489129097
S084,13347.0,13376.984375,N2,-0.04218229166666655,48.1476882652707,-99.62,74.4,174.02,12.865,18.30935145113977,781.25,790.0472005208334,0.21358993356949718,0.0,0.10152910775842672,64.4782491771462,0.1619147404560288,65.19202405202648,0.007291666666666667,6,0.08808622499999999,0.0014109991936124544,5.078966221507759e-07,35.978,0.014000000000000396,4.166667796943365e-07,76.00966666666666,0.11895330549795101,0.45000000000000284,0.00011850697659151853
S084,13377.0,13406.984375,N2,-0.18752604166666673,48.22351189679968,-101.89,75.54,177.43,12.83,23.811508249282,796.875,799.0152994791666,0.15612494995995993,0.0,0.10152910775842672,64.49486235832494,0.12170749381709114,65.19202405202648,0.007291666666666667,7,0.08849187500000001,0.0016081737808380657,-6.824773986755099e-07,35.97400000000001,0.010832051206181923,-7.638890961071629e-06,76.05633333333334,0.11743035761202963,0.4000000000000057,-9.371530319967918e-05
S084,13407.0,13436.984375,N2,-0.2444531249999999,47.9916986952875,-104.39,73.7,178.09,12.575,24.31114238532242,781.25,795.8089192708334,0.16532992583014122,0.032258047015004204,0.1064285672672312,64.49339239314786,0.12601305536071078,65.19202405202648,0.007291666666666667,7,0.088385125,0.0013526113852008628,3.697331732132091e-08,35.966666666666676,0.011642832797714699,-6.875001864963651e-06,75.82666666666667,0.1114849267340154,0.3199999999999932,0.00013854170424850836
S084,13437.0,13466.984375,N2,0.46412499999999995,48.17718639915101,-99.34,72.3,171.64,13.059999999999999,30.90656926378366,796.875,795.4996744791666,0.1529193630552463,0.0,0.09090593428863095,64.49419593555025,0.11059969945223488,65.19202405202648,0.004166666666666667,4,0.08907899999999999,0.0015891056132302849,7.061069623771068e-08,35.964000000000006,0.01171893055416335,1.3194448023674784e-06,75.429,0.10338762014864353,0.4000000000000057,-3.7673621330737955e-05
S084,13467.0,13496.984375,N2,-0.020411458333333302,48.49938479407362,-99.03,75.31,174.34,12.645,16.18650297991836,781.25,789.9007161458334,0.15925921720229852,0.05581428468591172,0.09090593428863097,64.49289549465927,0.11978055611358684,65.19202405202648,0.005208333333333333,5,0.08854524999999998,0.0015912554752458821,-7.950653198419353e-08,35.96333333333334,0.009428090415818758,5.555557062595754e-06,75.33966666666666,0.12573738063475162,0.38999999999998636,-0.00017343754704794378
S084,13497.0,13526.984375,N2,-0.21172916666666686,48.95744708981106,-99.98,76.21,176.19,12.440000000000001,29.777807777976427,781.25,785.6689453125,0.1821904480893551,0.045595976308831845,0.11987768650679834,64.49106976032799,0.14735275760722785,65.26101439603893,0.011458333333333333,11,0.088257025,0.0014109991936124549,-9.868817781254876e-08,35.970000000000006,0.012649110640673249,1.0694447345498502e-05,75.85566666666666,0.16760436218136407,0.6499999999999915,0.000298020914176678
S084,13527.0,13556.984375,N2,0.011604166666666357,48.60430056449892,-100.2,77.28,177.48000000000002,13.24,18.376939456395075,796.875,789.7867838541666,0.20219874281810515,0.03225804701500421,0.10642856726723121,64.4828444813936,0.14163069960982963,65.19202405202648,0.004166666666666667,4,0.0878834,0.0013875857595118206,-4.6703137669037654e-08,35.97466666666667,0.011175369742827509,-1.1805558758020664e-06,76.21833333333332,0.07844672643832067,0.25,-9.947919365212453e-05
S084,13557.0,13586.984375,N2,0.23155208333333294,49.34199920460969,-99.53,75.47,175.0,13.225000000000001,13.845009896895663,796.875,797.9166666666666,0.19741988090108856,0.0,0.10642856726723121,64.48424999179834,0.15221583991380044,65.19202405202648,0.008333333333333333,8,0.08860929999999999,0.001441085462420601,3.2914592261987876e-07,35.980000000000004,0.011254628677423884,5.347223672749646e-06,76.01966666666667,0.16606190278193256,0.5,-0.0002903820232156123
S084,13587.0,13616.984375,N2,-0.15023958333333345,50.13744307157177,-108.32,77.59,185.91,12.575,17.845503290951196,796.875,792.9280598958334,0.20684625513624577,0.03225804701500421,0.11557806855349137,64.4827477220252,0.15557811859535883,65.19202405202648,0.008333333333333333,8,0.0875845,0.0015005876015747955,-3.169141484684648e-07,35.989333333333335,0.01236482466066148,1.4236114972904902e-05,75.654,0.025377155080899518,0.0799999999999983,1.2500003390842419e-05
S084,13617.0,13646.984375,N2,-0.37042187499999996,48.00187790791736,-97.94,73.32,171.26,12.26,18.192943732741533,796.875,796.8017578125,0.19249988726547926,0.032258047015004204,0.11557806855349137,64.48726251453127,0.1522554276938562,65.19202405202648,0.010416666666666666,10,0.08730695000000001,0.0014961765596011717,-2.2906777047194255e-07,35.99400000000001,0.011135528725660126,2.222222825038894e-06,75.518,0.0398664437006007,0.14999999999999147,-5.444445921344639e-05
S084,13647.0,13676.984375,N2,0.016036458333333257,47.44828865974256,-97.61,72.71,170.32,12.5,17.368586096612354,781.25,787.6546223958334,0.17950549357115014,0.032258047015004204,0.10152910775842672,64.48890990523786,0.13022122501714883,65.19202405202648,0.005208333333333333,5,0.087168175,0.0014975088461758746,2.2545383719993426e-07,35.99266666666667,0.010934146311237923,-5.625001525879434e-06,75.85466666666667,0.1860776420983675,0.5499999999999972,0.00031784730844381954
S084,13677.0,13706.984375,N2,0.3344947916666666,48.081928064621444,-95.81,76.72,172.53,13.8,29.52181329493812,781.25,782.4300130208334,0.1899835519196333,0.032258047015004204,0.11557806855349137,64.48803373421843,0.14348668104224316,65.19202405202648,0.008333333333333333,8,0.0881396,0.0015548898803452278,2.5019538036982676e-08,35.99366666666667,0.01015983376941871,-1.076389180878001e-06,76.18533333333335,0.1680819905747052,0.519999999999996,0.00029902785889427465
S084,13707.0,13736.984375,N2,0.04384895833333324,39.473651367981354,-93.42,82.56,175.98000000000002,11.805,43.78599774913352,812.5,810.888671875,0.15612494995995993,0.07198059875565237,0.06441510347391795,64.49092061156867,0.11775825100318396,65.19202405202648,0.003125,3,0.088257025,0.0013816188600243543,-1.2259573638122125e-07,35.997,0.01268857754044935,-6.701390706757508e-06,76.19266666666665,0.37297840271105387,0.9500000000000028,-0.0006006251629300034
S084,13737.0,13766.984375,N2,0.035416666666666576,43.52943910726459,-114.16,64.58,178.74,12.2,24.53338759518234,796.875,804.9560546875,0.14994211846205485,0.09090593428863095,0.08507936450096985,64.49631909700199,0.11560538205792832,65.23802572120036,0.00625,5,0.087488425,0.0013835969587907445,-6.5884783497392e-08,35.948,0.016613247725836236,-1.8402782769851224e-05,74.92666666666668,0.3819714939916619,1.230000000000004,-0.0006141668332700828
S084,13767.0,13796.984375,N2,-0.4717239583333335,44.418454143952204,-93.57,67.75,161.32,11.094999999999999,14.384556694208305,781.25,784.5133463541666,0.13928372696486202,0.07198059875565238,0.09090593428863095,64.49756358194351,0.11049280437567204,65.19202405202648,0.00625,6,0.08713615,0.0014882343657838307,2.023802632324931e-07,35.92466666666666,0.012578641509410772,-9.305558079851193e-06,74.79933333333334,0.38402199011109844,0.9699999999999989,0.0006250001695421454
S084,13797.0,13826.984375,N2,0.5126666666666666,45.76783791222524,-92.33,72.32,164.64999999999998,12.395,15.229450962458898,781.25,776.7822265625,0.18483053424390922,0.07198059875565237,0.08507936450096985,64.48552243509556,0.1395693595278692,65.19202405202648,0.005208333333333333,4,0.08722155,0.0015617638097676606,2.613151750529455e-07,35.91533333333332,0.013597385369581562,4.86111242977195e-06,76.35100000000001,0.5199060812621199,1.6700000000000017,0.0009144794147350853
S084,13827.0,13856.984375,N2,0.010958333333333403,46.85894849526179,-93.93,72.31,166.24,11.9,20.806471673613384,781.25,787.4104817708334,0.1874276480775686,0.05581428468591172,0.10152910775842672,64.4867816911308,0.13989443794755713,65.19202405202648,0.00625,6,0.0879261,0.00152230141233594,-6.171486049122689e-08,35.92733333333333,0.016918103387267028,2.6388896047331555e-06,77.047,0.03606937759374121,0.09999999999999432,2.7743063081341422e-05
S084,13857.0,13886.984375,N2,-0.5274479166666665,45.39008597066512,-92.84,73.16,166.0,11.77,44.129241705862995,828.125,826.9368489583334,0.1356408400888169,0.08507936450096987,0.09654963281764578,64.4977738920913,0.10039736714934928,65.19202405202648,0.004166666666666667,4,0.087552475,0.001518366309351929,-1.1870380824213533e-07,35.934666666666665,0.01231079020841485,5.902779379010085e-06,76.13466666666666,0.6506752048620127,2.230000000000004,-0.0011516669790763282
S084,13887.0,13916.984375,N2,0.25100520833333356,45.03948517550987,-91.82,66.73,158.55,12.035,16.796289478121324,789.0625,788.6474609375,0.1356408400888169,0.09636964965693297,0.07198059875565237,64.49647287117811,0.09567572340654427,65.19202405202648,0.0020833333333333333,2,0.08721087500000001,0.0015297315971682735,-3.1163224599398965e-07,35.922,0.016812693617226378,-1.1388891978325194e-05,74.153,0.23842748722969365,0.8199999999999932,-0.0003995487194956349
S084,13917.0,13946.984375,N2,0.1318333333333333,47.04649702768941,-95.09,74.42,169.51,11.899999999999999,13.91520655847392,781.25,786.9466145833334,0.13188915142607024,0.07198059875565237,0.10152910775842672,64.50051955114752,0.10030436365322479,65.19202405202648,0.00625,6,0.08696535,0.0014882343657838298,-7.2278665440184245e-09,35.92133333333333,0.011175369742828553,-1.4583337289319034e-06,74.805,0.4467269859768951,1.7000000000000028,0.0007801043782835249
S084,13947.0,13976.984375,N2,-0.3566510416666668,45.12725496885515,-92.12,69.78,161.9,11.715,21.088097839383202,796.875,797.16796875,0.162326296048696,0.07880950133074056,0.08507936450096985,64.49163539590842,0.12418653124635175,65.19202405202648,0.005208333333333333,5,0.087338975,0.0014834409574954433,3.419336865054595e-08,35.932,0.013012814197297455,2.0833338984741456e-07,76.223,0.1710584695360057,0.6000000000000085,0.00014774309563343526
S084,13977.0,14006.984375,N2,0.08618229166666644,43.97185535300415,-89.44,69.43,158.87,11.92,15.896210885553357,796.875,789.990234375,0.11987768650679834,0.12401959270615269,0.09090593428863095,64.50206559110921,0.09785778921150609,65.19202405202648,0.00625,6,0.088299725,0.0014222609814569889,-5.974109693497634e-07,35.922666666666665,0.01412641340027972,-1.0208336102522907e-05,75.76633333333332,0.08443866939316823,0.30000000000001137,3.9270843986229484e-05
S084,14007.0,14036.984375,N2,0.01306770833333329,45.21887278508553,-92.59,67.56,160.15,11.855,16.54496061965776,796.875,787.1337890625,0.11110243021644486,0.08507936450096987,0.09636964965693294,64.50370161628568,0.09988892421552596,65.19202405202648,0.008333333333333333,8,0.087552475,0.0015273459331058559,4.531316333364811e-08,35.91933333333332,0.013399834161495578,-2.9166674578637076e-06,75.80566666666667,0.09888320832623032,0.3399999999999892,0.00014406253907946334
S084,14037.0,14066.984375,N2,-0.12171874999999979,46.69603024553299,-94.89,71.43,166.32,12.23,14.873111975461914,796.875,788.5172526041666,0.13188915142607024,0.10152910775842669,0.07198059875565237,64.49727735635845,0.107843792750782,65.19202405202648,0.005208333333333333,5,0.0874137,0.0013630599803383554,-7.111108699845022e-07,35.924,0.015620499351814204,6.250001695419732e-07,76.09666666666668,0.08001388768346732,0.25,-5.1805569608716114e-05
S084,14067.0,14096.984375,N2,0.20484895833333355,46.680742273961535,-98.02,72.85,170.87,11.885,21.20312251121677,796.875,793.798828125,0.17116012950028855,0.09636964965693297,0.08507936450096985,64.48958784796248,0.13045126776340285,65.19202405202648,0.005208333333333333,5,0.087360325,0.0015201664775198133,-2.6409512372371605e-08,35.93066666666667,0.012092238098146593,8.819446836873893e-06,75.98033333333335,0.11273814300798576,0.3400000000000034,-0.0001586458763687805
S084,14097.0,14126.984375,N2,0.12010937499999981,43.103606694105316,-121.13,74.45,195.57999999999998,12.545,40.82293098970541,796.875,814.013671875,0.9394649546639121,0.31123180167682085,0.9372684899334993,64.52866570090787,0.43690524580271045,71.19691004531025,0.017708333333333333,13,0.0880542,0.0014410854624206004,4.9816680180306e-07,35.94533333333334,0.012310790208413427,-4.652779039925177e-06,75.807,0.15891612043255277,0.6500000000000057,-0.00016253476631259572
S084,14127.0,14156.984375,N2,0.17906770833333346,38.87144771304403,-81.37,64.1,145.47,10.515,14.89719340199725,812.5,813.0859375,0.05581428468591173,0.0,0.1496378730654628,64.55031968588379,0.10694289848222512,64.56779382943171,0.0,0,0.08787272500000001,0.0014911030143403895,5.0873060675200066e-08,35.931999999999995,0.017397317800934814,-1.534722638542553e-05,74.47266666666665,0.3498564785101979,1.1300000000000097,-0.0006220140576210036
S084,14157.0,14186.984375,N2,-0.3330208333333335,40.89558704467675,-84.14,66.34,150.48000000000002,9.015,18.491760985317423,796.875,799.1536458333334,0.07198059875565237,0.03225804701500421,0.11987768650679834,64.55436422431332,0.09518190320092425,64.63745044476924,0.0,0,0.087552475,0.0016143974415784353,-1.5064541846935166e-06,35.911333333333324,0.011469767022723534,-8.333335593882282e-07,74.03999999999999,0.08004165582161936,0.35999999999999943,8.048613294437197e-05
S084,14187.0,14216.984375,N2,0.2848437500000001,38.80266923374068,-83.4,63.85,147.25,9.745000000000001,14.346571375874289,796.875,802.0833333333334,0.05581428468591173,0.0,0.12401959270615269,64.55514394438718,0.09159868694858249,64.56779382943171,0.0,0,0.0870294,0.0013305692729053977,-2.968985180388767e-07,35.90533333333333,0.016069294390924773,-6.041668305574288e-06,74.83233333333334,0.15497705923422672,0.5499999999999972,0.00023961812055613255
S084,14217.0,14246.984375,N2,-0.014057291666666583,39.360098645218116,-82.07,65.26,147.32999999999998,9.34,19.349042602191265,796.875,797.1761067708334,0.045595976308831845,0.03225804701500421,0.1356408400888169,64.55391969342008,0.09571075594460143,64.63745044476924,0.0,0,0.086186075,0.0013753361114196784,4.1727029548347957e-07,35.893333333333324,0.011642832797714428,-2.083333898480069e-07,74.86566666666667,0.13070790165692023,0.36999999999999034,-7.475696472356702e-05
S084,14247.0,14276.984375,N2,-0.30381250000000004,40.2049736123925,-86.49,66.57,153.06,9.129999999999999,18.010423773901504,796.875,794.9544270833334,0.05581428468591172,0.06441510347391793,0.18483053424390922,64.54233976434666,0.12878694409199923,64.63745044476924,0.0,0,0.085737725,0.0014695485869392006,3.1719214333554235e-07,35.889333333333326,0.010934146311237736,-2.986111921145637e-06,75.232,0.12196720870791515,0.4100000000000108,0.00021888894826631734
S084,14277.0,14306.984375,N2,0.03749479166666661,41.41385259544018,-84.3,67.77,152.07,10.094999999999999,16.765427043813084,796.875,792.9606119791666,0.0,0.0,0.26506476868347145,64.51748370503927,0.17537018938544718,64.56779382943171,0.0,0,0.0861754,0.0014859354595674749,9.062632666729797e-08,35.89733333333332,0.010934146311236233,8.12500220404671e-06,75.59733333333334,0.0699968253248366,0.23000000000000398,9.45833589907122e-05
S084,14307.0,14336.984375,N2,0.18417187500000007,42.650612520533734,-87.28,72.02,159.3,9.925,28.791842718179602,796.875,801.8636067708334,0.03225804701500421,0.032258047015004204,0.23437268517375393,64.52850159096175,0.15673467573918495,64.63745044476924,0.0,0,0.08677320000000001,0.0013630599803383559,1.773607251955093e-07,35.91399999999999,0.012000000000000455,6.666668475117249e-06,75.55033333333334,0.07735129101846004,0.21000000000000796,-0.00012864586823076114
S084,14337.0,14366.984375,N2,-0.09777083333333332,42.38256146928219,-85.86,77.21,163.07,9.59,11.459523919413419,796.875,798.3561197916666,0.0,0.0,0.24393467007354425,64.52575386247365,0.1613902500168125,64.56779382943171,0.0,0,0.086228775,0.0015495673507063198,4.561895768743441e-07,35.934666666666665,0.0152169496140196,1.7291671357334808e-05,75.37133333333334,0.09928858052274908,0.3200000000000074,-0.00014680559537912414
S084,14367.0,14396.984375,N2,-0.04050520833333333,42.556542922634286,-89.13,85.9,175.03,9.585,36.66242965146392,796.875,804.2805989583334,0.0,0.045595976308831845,0.26836818808308854,64.51625046341549,0.1776264108726666,64.63745044476924,0.0,0,0.08646362499999999,0.0015371629335808874,-3.9113877797818483e-07,35.95133333333333,0.012578641509408312,7.500002034505527e-06,75.075,0.1162683677245593,0.35999999999999943,-0.00014107642715831703
S084,14397.0,14426.984375,N2,0.00823437500000012,42.0244226766966,-86.82,69.0,155.82,10.065,13.380411006213672,796.875,795.2799479166666,0.03225804701500421,0.0,0.2617030727062426,64.51809133519447,0.17456745640586815,64.56779382943171,0.0,0,0.086655775,0.0014109991936124557,4.475717359949326e-08,35.96000000000001,0.011254628677421148,3.4722231641191386e-07,74.90133333333333,0.06270211763214703,0.1700000000000017,9.09028024367395e-05
S084,14427.0,14456.984375,N2,0.20082812500000014,41.74419669985629,-86.69,70.95,157.64,9.68,18.131473890504054,796.875,794.5475260416666,0.0,0.0,0.25654623798103576,64.52092960397026,0.16973422218395223,64.56779382943171,0.0,0,0.08602595,0.0014018026956387271,-3.7306911161813997e-07,35.97000000000001,0.012649110640673249,3.6111120906876345e-06,75.10799999999999,0.2500853187747447,0.7099999999999937,0.0003678473220071922
S084,14457.0,14486.984375,N2,0.07879687499999997,42.56719087782953,-85.67,68.32,153.99,10.065000000000001,20.506236505250456,796.875,793.5872395833334,0.0,0.0,0.2732186624299299,64.51403780610828,0.18076490818435637,64.56779382943171,0.0,0,0.085203975,0.0016101566459121297,-5.167924578972594e-07,35.97533333333334,0.011175369742827495,2.013889435191553e-06,75.69633333333334,0.09768941714547182,0.269999999999996,0.00017315976919481414
S084,14487.0,14516.984375,N2,0.17582812500000003,42.57007260879849,-87.62,72.45,160.07,9.56,15.06932943664511,781.25,788.9322916666666,0.0,0.032258047015004204,0.2582808246366733,64.52031298315838,0.17091680808164775,64.63745044476924,0.0,0,0.085182625,0.001426421285726976,3.071843281207497e-07,35.982333333333344,0.011160446028523318,4.895834661414013e-06,75.89566666666666,0.06227269778072291,0.18000000000000682,5.621529302715409e-05
S084,14517.0,14546.984375,N2,-0.3032031250000001,41.60721512575962,-86.67,69.7,156.37,8.83,19.223512509148584,796.875,797.1923828125,0.0,0.04559597630883184,0.26339134382131846,64.5183180027741,0.17433328115005867,64.63745044476924,0.0,0,0.0857911,0.0014580658901435155,-4.892709660565774e-07,35.97766666666667,0.011455226851627375,-8.680557910312773e-07,75.83666666666667,0.18439691489345017,0.5,-0.00028840285601206087
S084,14547.0,14576.984375,N2,-0.3328541666666665,42.1038322877154,-90.01,69.79,159.8,9.345,28.216374866804145,796.875,794.5719401041666,0.03225804701500421,0.032258047015004204,0.28256636388643286,64.50920455694822,0.18826602581872237,64.63745044476924,0.0,0,0.086057975,0.0014648885194358653,5.351401191243805e-07,35.98166666666667,0.011571036638474159,-4.131945565306628e-06,75.821,0.057291651515149714,0.23000000000000398,5.798612684086896e-06
S084,14577.0,14606.984375,N2,0.36857291666666664,41.11233606616875,-86.12,67.15,153.27,9.879999999999999,26.5369916119211,796.875,803.9876302083334,0.032258047015004204,0.045595976308831845,0.23632521950693286,64.52788497014987,0.15804412603139548,64.63745044476924,0.0,0,0.08558827500000002,0.0013666918633602095,-4.823210943796361e-07,35.97566666666667,0.016265163865007592,-1.3993059351416041e-05,75.34966666666669,0.1813005485068593,0.5,-0.0003093403616917167
S084,14607.0,14636.984375,N2,0.04766666666666645,41.327934174081605,-87.37,65.81,153.18,10.04,18.188831573367025,812.5,803.955078125,0.0,0.04559597630883184,0.2986060642338368,64.50246761806328,0.19739008932534474,64.63745044476924,0.0,0,0.085236,0.0015005876015747961,2.4463548302828706e-07,35.977000000000004,0.012423096769056842,1.7361115820705482e-07,75.036,0.1795290134397975,0.4399999999999977,-0.0003016667484990113
S084,14637.0,14666.984375,N2,0.11149999999999975,41.556366133090854,-85.32,67.39,152.70999999999998,9.274999999999999,15.806743312753373,796.875,787.98828125,0.0,0.03225804701500421,0.2957874817753449,64.50377266828963,0.19573338399966922,64.63745044476924,0.0,0,0.08528937500000001,0.0015072177627585873,3.666752296753545e-07,35.96266666666667,0.014126413400277173,-2.5694451414506843e-06,75.214,0.3892265835388614,0.9500000000000028,0.0006731251825968947
S084,14667.0,14696.984375,N2,-0.09759374999999997,42.139791408348565,-84.8,70.97,155.76999999999998,9.585,31.10616856627096,796.875,797.9166666666666,0.0,0.04559597630883184,0.302757867592056,64.50039932833293,0.2003825148388244,64.63745044476924,0.0,0,0.08530005,0.0014528984814845118,1.5234118715852464e-07,35.96000000000001,0.012382783747336491,6.041668305574214e-06,75.5,0.12425779653607431,0.3500000000000085,0.00011805558758018448
S084,14697.0,14726.984375,N2,-0.09303124999999994,40.89027415916312,-85.69,67.34,153.03,9.425,14.148889495203594,796.875,801.2369791666666,0.0,0.032258047015004204,0.31598061649411346,64.49343497149665,0.20909466117399989,64.63745044476924,0.0,0,0.08458482500000002,0.0014097064036085662,-2.054382067703472e-07,35.95733333333333,0.013148721948876209,-4.097223333665824e-06,75.38733333333333,0.2189358099738123,0.6000000000000085,-0.00038729177172628547
S084,14727.0,14756.984375,N2,-0.14320312499999993,41.435696259138375,-85.83,68.63,154.45999999999998,9.205,27.58158113690139,796.875,801.806640625,0.0,0.032258047015004204,0.2914805954090255,64.50584020764822,0.19288365756088413,64.63745044476924,0.0,0,0.0842112,0.0015419371452818685,2.496393906356868e-07,35.95133333333333,0.014544949486180772,9.722224859548242e-07,75.01966666666667,0.08280432087491225,0.27000000000001023,-9.170141376448678e-05
S084,14757.0,14786.984375,N2,-0.03906770833333321,41.8137168023694,-87.71,68.17,155.88,10.06,14.410389906442152,796.875,795.0602213541666,0.03225804701500421,0.0,0.3497751633986546,64.47415414595366,0.23298175280528902,65.31462317123173,0.0010416666666666667,1,0.084414025,0.0015758194770896183,2.4046556002212563e-07,35.952666666666666,0.013399834161494118,6.111112768856143e-06,75.06266666666667,0.05378558253740991,0.1699999999999875,8.277780023268823e-05
S084,14787.0,14816.984375,N2,0.19446354166666638,35.41425027919146,-86.76,77.54,164.3,8.295,33.36215263513958,796.875,806.3883463541666,0.05581428468591172,0.06441510347391793,0.318518434404597,64.48996210059563,0.21407926196984448,64.63745044476924,0.0,0,0.085203975,0.0013716855778111107,4.650854126208256e-07,35.965333333333334,0.014313940369055119,-6.180557232138541e-06,75.45,0.1746234043114873,0.5999999999999943,0.0002685417395132757
S084,14817.0,14846.984375,N2,-0.020114583333333335,30.258601015306994,-71.68,50.9,122.58000000000001,7.885,19.030020025575407,796.875,799.9837239583334,0.045595976308831845,0.13928372696486196,0.302757867592056,64.50008554995246,0.20515615714347865,64.63745044476924,0.0,0,0.085203975,0.0015138565237085705,2.421335292245901e-07,35.923333333333325,0.026499475885803193,-3.805556587879031e-05,74.99933333333334,0.10305122782167873,0.4399999999999977,-0.00015430559741362948
S084,14847.0,14876.984375,N2,0.027036458333333437,37.108942864764245,-80.46,62.75,143.20999999999998,9.055,14.942221802814798,796.875,794.4010416666666,0.0,0.09636964965693297,0.35083605501715465,64.47334080007695,0.23227371166981794,64.63745044476924,0.0,0,0.08497980000000001,0.0014505435739749423,-5.676655185724601e-07,35.866,0.01743559577416118,-2.1041672374584822e-05,74.74666666666666,0.12610401350560677,0.4200000000000017,-0.00012347225571621251
S084,14877.0,14906.984375,N2,0.031083333333333366,38.9081299073714,-79.95,62.32,142.27,9.275,27.987976427496932,812.5,811.4501953125,0.0,0.10642856726723118,0.3570714214271425,64.46935083930838,0.23648965763314456,64.63745044476924,0.0,0,0.084499425,0.0015246575990611785,-1.9320643261893274e-07,35.842000000000006,0.01326649916142089,-2.5000006781689034e-06,74.82933333333334,0.2746990272198946,0.710000000000008,-0.00043687511850996284
S084,14907.0,14936.984375,N2,0.10365104166666675,40.38339853507641,-82.26,62.98,145.24,9.26,23.888743964453038,812.5,812.5813802083334,0.0,0.08507936450096987,0.34655421854146995,64.47595315164487,0.22914373996082396,64.63745044476924,0.0,0,0.08436065000000001,0.0013900473292301943,-1.4344535141204175e-07,35.830666666666666,0.01123486636423492,1.4583337289317058e-06,74.471,0.26510815403026383,0.7600000000000051,-0.0004382987300072537
S084,14937.0,14966.984375,N2,0.0508177083333333,40.32544650130076,-85.22,66.61,151.82999999999998,9.225000000000001,18.981101020197908,812.5,809.3180338541666,0.0,0.07198059875565238,0.3410547747430022,64.47925393262723,0.22541581970955488,64.63745044476924,0.0,0,0.08346395000000001,0.0014777840158494062,-4.303360542361266e-07,35.83299999999999,0.010049875621121246,3.2986120059189917e-06,74.29333333333334,0.2562073812797391,0.6799999999999926,0.00038916677223490756
S084,14967.0,14996.984375,N2,-0.2549114583333335,41.76631485734639,-88.44,69.98,158.42000000000002,8.675,19.193157672151113,796.875,804.3375651041666,0.0,0.06441510347391792,0.3817392125376811,64.45092425204707,0.2525464780141315,64.63745044476924,0.0,0,0.08410445000000001,0.0015143457324864745,5.976889642168406e-07,35.84133333333334,0.014313940369055096,1.812500491672321e-05,74.20633333333332,0.15208513697560824,0.45000000000000284,0.00021940978174093728
S084,14997.0,15026.984375,N2,-0.24449479166666682,41.31419142723758,-85.42,70.08,155.5,8.72,17.563621283078618,812.5,803.3528645833334,0.0,0.045595976308831845,0.4083426338226542,64.42803620115392,0.2700794873108653,64.63745044476924,0.0,0,0.083410575,0.0013229680435955353,-1.5929105883546504e-07,35.85466666666668,0.01783878421367758,7.500002034504662e-06,74.40166666666667,0.07992009898781738,0.25,3.2395842121266e-05
