participant_id,window_start_time,window_end_time,sleep_stage,BVP_mean,BVP_std,BVP_min,BVP_max,BVP_range,BVP_median,SDNN,median_nni,IBI_mean,x_std,y_std,z_std,mag_mean,mag_std,mag_max,movement_density,burst_count,EDA_mean,EDA_std,EDA_trend,TEMP_mean,TEMP_std,TEMP_slope,HR_mean,HR_std,HR_range,HR_trend
S085,8173.0,8202.984375,W,0.9774010416666667,75.85035456180587,-161.33,118.95,280.28000000000003,10.3,12.125156742406828,906.25,912.1826171875,0.5266796873390465,0.4530842893589325,0.28964889845293734,64.33151297269583,0.31652589763030237,65.26101439603893,0.010416666666666666,10,0.2306332166666666,0.0016621144023167822,2.0191086206349272e-06,30.041999999999998,0.014236104336041444,-8.611113447024947e-06,64.81766666666665,0.7824605776366976,2.029999999999994,-0.0013723267611563464
S085,8203.0,8232.984375,W,-0.01731249999999981,78.98092151197979,-158.03,118.5,276.53,10.254999999999999,32.1324422192377,937.5,928.6702473958334,0.402917690019383,0.40220205501160183,0.5039072593659141,64.31860643500545,0.36255977743031115,65.95452979136459,0.008333333333333333,8,0.2323840666666666,0.00108680625943889,1.262014231232149e-07,30.03266666666666,0.012364824660660675,2.0833338984737777e-06,63.78966666666667,0.1068482828853866,0.38000000000000256,-0.00012975697964327825
S085,8233.0,8262.984375,W,-0.012124999999999986,81.84802440069568,-184.67,149.04,333.71,7.91,13.526937837698036,906.25,899.7233072916666,0.5166960677118503,0.19485293154211347,0.41962362227953753,64.42945056388632,0.3163332141855934,65.26101439603893,0.0020833333333333333,2,0.23489308333333334,0.0013489750836797923,1.3890125295715465e-06,30.020666666666664,0.013399834161494777,-2.0833338984737777e-06,64.38466666666666,0.7210258124521086,1.7199999999999989,0.0012492364499881877
S085,8263.0,8292.984375,W,-0.35428645833333333,85.8291652682041,-174.7,141.38,316.08,11.280000000000001,45.74510578967137,812.5,824.8372395833334,0.5639295107152626,0.4951051638428839,0.24717149916606485,64.36746455738391,0.33436225952530185,65.30696746902278,0.028125,23,0.23765848333333334,0.0013737583180417439,4.3087294674287557e-07,30.000666666666667,0.015260697523014012,-5.694445989161917e-06,66.77766666666668,1.1958196166460722,3.700000000000003,0.002114618629182573
S085,8293.0,8322.984375,W,-0.36410416666666673,86.88758704216605,-229.36,166.75,396.11,6.785,73.06285508831586,906.25,889.2985026041666,0.6039286528293994,1.0094169237939628,0.9124690824290372,64.30932862235332,0.3503600179391399,65.30696746902278,0.18333333333333332,73,0.2401458,0.0012895310814400682,9.672072936217695e-07,29.990000000000006,0.010327955589887142,-1.9444449719091308e-06,70.08466666666666,0.42176402038211885,1.5,0.0001586111541371406
S085,8323.0,8352.984375,W,0.9751718749999997,86.56456342589784,-183.27,131.9,315.17,13.605,31.738906202113657,890.625,897.9573567708334,0.5186610951259235,0.3636461168002333,0.4958114490968875,64.35835779724994,0.3647350286972567,64.82283548256741,0.0020833333333333333,2,0.24350913333333335,0.0011898266185550864,4.1154351441610195e-07,29.970666666666673,0.009637888196533767,-7.708335424352977e-06,68.60033333333334,0.8421064197725965,2.5799999999999983,-0.001460521229525071
S085,8353.0,8382.984375,W,-0.36921874999999993,83.76622242707468,-182.34,125.74,308.08,8.614999999999998,22.617467667318177,890.625,892.6106770833334,0.4321648910491869,0.4969426928032603,0.37022421884882434,64.26513291894702,0.34153951953737993,64.72248450113763,0.121875,74,0.24681862499999999,0.0017785768471004137,2.2735455386136886e-06,29.956000000000003,0.013808210118138358,-2.083333898473778e-07,66.253,0.3441913227649224,1.1700000000000017,1.9791672035530432e-06
S085,8383.0,8412.984375,W,-0.7295677083333337,82.78407418845853,-178.5,130.67,309.16999999999996,8.545,48.91099738173719,890.625,913.8671875,0.5086395508691134,0.4746149298086,0.3687853090439839,64.1916760228846,0.34997053165054776,65.23802572120036,0.21875,134,0.24812102499999997,0.0011849399876681503,-1.6235486174990627e-07,29.943333333333335,0.01490711984999828,-1.1944447684582993e-05,66.684,0.0842456724902428,0.28000000000000114,9.902780464078614e-05
S085,8413.0,8442.984375,W,0.6315468750000002,80.6851484523903,-176.99,123.36,300.35,11.64,40.19179246073254,906.25,915.8854166666666,0.4230962262496165,0.4795107460271934,0.39379822235575873,64.22042682469187,0.3510509759701317,65.23802572120036,0.07708333333333334,52,0.25061944999999997,0.001472001086106936,1.0755970799688244e-06,29.934666666666665,0.009910712498212125,6.944446328245925e-08,66.66566666666667,0.13380790542996954,0.39000000000000057,-0.00022815978411452547
S085,8443.0,8472.984375,W,-0.4641302083333333,79.12515682629089,-163.31,121.0,284.31,11.399999999999999,30.4681196446435,890.625,900.8951822916666,0.4936401073206629,0.5253305837491495,0.48546472401595653,64.19712671627047,0.34575479044038115,65.18435395092905,0.08020833333333334,53,0.25229585,0.0013040222112755643,1.4977221944775969e-06,29.92533333333334,0.012310790208412664,-1.020833610252151e-05,66.32900000000001,0.21652328589168734,0.6799999999999926,-0.00036531259909738435
S085,8473.0,8502.984375,W,-0.22253645833333355,78.38176616177576,-160.81,135.78,296.59000000000003,10.010000000000002,40.12333052883406,906.25,913.0940755208334,0.45753244420477984,0.4994256684071103,0.3013838885273878,64.21152775028563,0.34537994677130435,65.23802572120036,0.096875,64,0.2548900166666667,0.0013421270058091455,1.081449946139856e-06,29.906000000000002,0.01083205120618105,-3.472223164122963e-06,65.76733333333334,0.07805695925981794,0.269999999999996,-7.527779819818985e-05
S085,8503.0,8532.984375,W,0.5164218749999999,78.78035624945328,-175.74,121.38,297.12,9.625,26.62513553582897,890.625,906.2581380208334,0.437078169654913,0.42281787639268775,0.48491904930101487,64.22872421045699,0.35961038693078395,65.23802572120036,0.028125,23,0.25659838333333335,0.0014626982725049172,1.8219727164639445e-06,29.892666666666667,0.016110727964792418,-1.6527782261225305e-05,66.00933333333334,0.13426176753723476,0.46999999999999886,0.00022777783956647274
S085,8533.0,8562.984375,W,-0.3419270833333325,84.61661414097225,-169.69,131.61,301.3,9.6,40.93095304830223,906.25,910.6689453125,0.5394495892805926,0.43847980561316113,0.4995212551783959,64.27186551990391,0.3403590134743527,65.23802572120036,0.004166666666666667,4,0.25944917500000003,0.0011809753995638546,7.614279409255485e-07,29.87066666666667,0.009637888196533769,-5.6250015258792e-06,65.52666666666667,0.33902146769128866,1.039999999999992,-0.0005495834824173951
S085,8563.0,8592.984375,W,1.0421197916666673,89.66908886483812,-198.27,143.08,341.35,12.77,24.213136685587454,906.25,906.7952473958334,0.4853037690600486,0.4145728641894236,0.40867332784130755,64.22448125142576,0.3421251992024277,64.60650122085238,0.0020833333333333333,2,0.2613706833333333,0.0013178139662798516,1.7004948189276342e-06,29.842666666666666,0.01671991493864712,-2.395833983245091e-05,65.17,0.11290113669342057,0.3399999999999892,0.00012777781243972436
S085,8593.0,8622.984375,W,-0.430244791666667,89.10605074147412,-193.16,162.18,355.34000000000003,8.38,36.988549989636375,921.875,918.5221354166666,0.7859104051547832,0.4952508833914383,0.2773553645846586,64.16072825402532,0.3368232668914272,64.66065264130884,0.20833333333333334,107,0.2631641916666666,0.0011518796471842103,6.030902243625787e-07,29.819999999999997,0.011254628677422515,9.027780226719704e-07,65.88366666666667,0.3279276681763147,1.0500000000000114,0.0005564932065139985
S085,8623.0,8652.984375,W,-0.7113645833333334,84.52785335820522,-176.67,140.45,317.12,9.975,27.94189067970354,906.25,917.7327473958334,0.9130842640544677,0.4758034141206732,0.3316035848720577,64.1990713656448,0.3370619955542342,64.60650122085238,0.016666666666666666,15,0.26524639166666664,0.0013833360057956185,1.4382961800933733e-06,29.808666666666667,0.017074997966487516,-1.986111649878368e-05,65.89866666666667,0.24820332167174805,0.7399999999999949,-0.00043743067421622207
S085,8653.0,8682.984375,W,0.5740989583333334,87.22091419278763,-170.96,139.88,310.84000000000003,12.45,55.397295111586175,906.25,917.9606119791666,0.5042688859874263,0.4915254034352875,0.21392496088322394,64.10542589818893,0.328499738927591,64.66065264130884,0.4166666666666667,137,0.26659172499999995,0.0012658394642982972,8.940477685676467e-07,29.788000000000004,0.013999999999999702,-1.215278107443037e-05,65.30466666666668,0.14068246356797842,0.37999999999999545,-0.00020986116803959622
S085,8683.0,8712.984375,W,0.3875729166666667,88.74793382186952,-181.78,134.15,315.93,12.34,28.775027848418137,906.25,919.4742838541666,0.27107160992684814,0.49817265908908415,0.20155375196347886,64.11618414476014,0.3343736161971063,65.22269543648132,0.45729166666666665,137,0.2680222,0.0012873890670655752,8.91251543850781e-07,29.772000000000002,0.015790292376435675,6.944446328245917e-08,65.241,0.03467467856135301,0.09999999999999432,-5.045140257470373e-05
S085,8713.0,8742.984375,W,-0.3120833333333338,86.29881504433045,-190.4,168.44,358.84000000000003,9.745000000000001,48.83135568739246,906.25,927.685546875,0.5085680810427995,0.4721359194012767,0.24595468403188062,64.22704575733398,0.3293452372922702,64.60650122085238,0.005208333333333333,5,0.26915375,0.0011042305862001842,8.38988508840198e-07,29.755999999999993,0.01171893055416438,-2.84722299458083e-06,65.11566666666667,0.09272480190805972,0.3199999999999932,-0.00016086809919382058
S085,8743.0,8772.984375,W,0.2762864583333332,86.03994903054254,-172.03,126.68,298.71000000000004,12.235,27.764130392249257,906.25,918.7093098958334,0.500259264379204,0.4917185265728759,0.24108226753998777,64.11266858815978,0.3308723391160287,64.66065264130884,0.4239583333333333,129,0.27104335,0.0012018558888236132,1.051222507384572e-06,29.746000000000002,0.01083205120618105,3.055556384428209e-06,64.97866666666667,0.06970094850302944,0.25,7.680557639039838e-05
S085,8773.0,8802.984375,W,-0.5716458333333332,83.34228675318171,-167.52,137.6,305.12,9.620000000000001,45.607053777727174,906.25,914.2171223958334,0.38933119068688377,0.4779411411199082,0.28476773857049814,64.08754420627126,0.33573691470340145,64.60650122085238,0.41041666666666665,138,0.272890675,0.0013129922579265332,7.697343667899291e-07,29.730666666666668,0.015902480589168412,-1.868056062298154e-05,65.29066666666667,0.1735498647523416,0.5100000000000051,0.00028673618889328193
S085,8803.0,8832.984375,W,0.5949531249999997,85.90840150996759,-177.79,136.97,314.76,11.135,27.129852251574725,921.875,910.6119791666666,0.4879805323985783,0.4229525846816507,0.3044733043397328,64.0158050917621,0.3221518071635098,64.56779382943171,0.31875,141,0.27437482500000004,0.001203910957826614,4.395098848496843e-07,29.694666666666663,0.01431394036905562,-6.458335085268711e-06,65.57466666666667,0.09959027172481373,0.3199999999999932,0.00015951393215981336
S085,8833.0,8862.984375,W,-0.7603749999999998,83.13843462653745,-170.47,135.33,305.8,9.835,30.328270260808385,921.875,927.8564453125,0.5480394349152461,0.4807221130757352,0.24986107250941583,64.02003151228642,0.3229785842010833,64.56779382943171,0.3541666666666667,130,0.2747804666666667,0.0012806702797970825,-1.0072281378114472e-06,29.686,0.018184242262648125,-1.9305560792524674e-05,65.743,0.10344563789740036,0.39000000000000057,-0.00014947920721549639
S085,8863.0,8892.984375,W,-0.1620989583333334,79.37509376779632,-163.71,132.5,296.21000000000004,9.125,52.11566938506001,906.25,929.833984375,0.39302595466669465,0.49515775930224726,0.37211855936276844,64.07789015510143,0.34313739340761634,64.5445582524197,0.459375,164,0.274353475,0.0011611240241141314,7.419683002301153e-07,29.658,0.011075498483892155,-4.166667796949406e-07,65.45333333333333,0.057522942282959316,0.1799999999999926,4.3125011698405656e-05
S085,8893.0,8922.984375,W,0.9798593749999998,77.81840960779444,-181.86,128.69,310.55,10.1,30.59164081490302,890.625,897.5504557291666,0.8377946983582685,0.29114350401572686,0.46308966726818207,64.18305558310077,0.35201943591854296,65.12296062065974,0.0010416666666666667,1,0.27597608333333334,0.0011867741612127413,8.376161126345744e-07,29.648,0.014000000000000817,2.4305562148867896e-06,65.65933333333332,0.11921782118831291,0.3399999999999892,0.00018944449583455154
S085,8923.0,8952.984375,W,-0.06981770833333319,84.52959673563862,-169.35,132.98,302.33,10.675,30.45950529259089,906.25,909.2041015625,0.591034543488976,0.4913741626381401,0.4152005455867749,64.14892260880613,0.3462582794202409,65.14598989960932,0.007291666666666667,7,0.27723585833333336,0.0013365593221392146,1.2047071410338445e-06,29.649333333333335,0.016719914938646746,6.944446328242263e-08,65.61333333333333,0.12380989010934873,0.4000000000000057,-0.000168888934702946
S085,8953.0,8982.984375,W,0.05592187499999994,77.12389321655976,-156.31,128.73,285.03999999999996,9.754999999999999,25.88467771523107,906.25,913.4684244791666,0.49046463231873866,0.5240069974087496,0.5035292113340264,64.18588660666131,0.3339818111040903,65.14598989960932,0.0010416666666666667,1,0.27878412499999994,0.0011975538649158987,6.007271594854243e-08,29.641333333333325,0.013349989596333572,-2.152778361756237e-06,65.42966666666668,0.06665749936970446,0.25,2.0243061046837035e-05
S085,8983.0,9012.984375,W,-0.537328125,76.89564629456599,-160.25,120.82,281.07,8.475000000000001,28.51082632253444,921.875,925.5696614583334,0.4910560738941463,0.4422166387140533,0.34798371359958147,64.18039379728035,0.3384553530654367,64.56779382943171,0.00625,4,0.280076125,0.0014821267689961609,1.7753179729052626e-06,29.626666666666665,0.012736648783028263,-4.0972233336650955e-06,65.02400000000002,0.41157097403323534,1.0799999999999983,-0.0006672918476811635
S085,9013.0,9042.984375,W,0.13220312500000017,76.79012656931656,-157.63,116.19,273.82,10.795,17.28487846692498,890.625,896.3460286458334,0.5505639469872888,0.4706489314411185,0.4844410797220051,64.08760949457374,0.3552828981086863,65.12296062065974,0.4552083333333333,141,0.28314001666666666,0.0017889027036302279,2.4764507585858074e-06,29.58866666666666,0.012578641509408536,-1.1666669831453155e-05,64.775,0.13966030216206704,0.45999999999999375,0.00022954867338017298
S085,9043.0,9072.984375,W,0.303546875,76.53118005694974,-156.06,121.31,277.37,11.184999999999999,33.76028394805423,890.625,889.9495442708334,0.41661327782955854,0.437141470156465,0.4298929433106961,64.06444084832874,0.3572493867333657,65.11528238439882,0.24166666666666667,117,0.28491215000000003,0.001345590401087944,6.861998389214001e-07,29.583333333333325,0.011925695879998624,4.305556723512474e-06,66.46133333333333,0.7267954014408431,2.0200000000000102,0.0012282642220768842
S085,9073.0,9102.984375,W,0.15944270833333338,73.49611739923643,-148.57,108.53,257.1,9.405000000000001,25.5964223718674,890.625,896.3134765625,0.40388736053508784,0.49660195153048775,0.3361792573249509,64.09262105162968,0.34983576936801086,65.12296062065974,0.12916666666666668,78,0.28584105833333334,0.0010822361749007973,4.3739226274747214e-07,29.572,0.013012814197295147,-5.9027793790090365e-06,67.43866666666666,0.14997184921029344,0.47999999999998977,0.0002484722896246413
S085,9103.0,9132.984375,W,-0.8118958333333332,76.53411983423896,-154.08,113.05,267.13,8.89,30.4633404746901,890.625,896.5576171875,0.4552500457623993,0.4465142774872938,0.25789613542406303,64.18827766619424,0.31359780114596636,65.11528238439882,0.0010416666666666667,1,0.28647115833333336,0.0011023725171634268,-4.677980869678001e-07,29.564,0.013808210118138358,1.409722604633923e-05,67.413,0.1587272293380479,0.4399999999999977,-0.0002792014646271327
S085,9133.0,9162.984375,W,-0.36488541666666685,73.95358863832688,-156.11,117.43,273.54,7.970000000000001,14.600035775661908,890.625,891.4713541666666,0.6180024946012219,0.26594139653105703,0.40564056852505925,64.26733662388432,0.29415405091662467,65.14598989960932,0.004166666666666667,4,0.2861827916666667,0.0012926992747466714,-5.704840957259207e-08,29.553333333333335,0.014681810363696514,-3.263889774275585e-06,67.196,0.07744245175182206,0.25,1.6250004408094653e-05
S085,9163.0,9192.984375,W,0.17763020833333318,76.64762395112348,-171.65,115.14,286.79,10.67,12.09845101448824,906.25,907.2509765625,0.5419510471435589,0.6164968445782996,0.5600990425808634,64.22511207644283,0.345476147305777,65.23802572120036,0.007291666666666667,7,0.287015725,0.0014369889524192625,1.5536256384618183e-06,29.541999999999998,0.016812693617224296,-1.1944447684582991e-05,67.07266666666666,0.1651450540854559,0.47999999999998977,-0.000291666745786331
S085,9193.0,9222.984375,W,-0.04776562499999943,72.14282624778423,-151.76,107.41,259.16999999999996,11.434999999999999,11.885854545281383,890.625,884.5947265625,0.544359293050606,0.3431987372702424,0.40549609533672865,64.28580093663888,0.29994099670779584,64.56779382943171,0.0,0,0.287635075,0.0011458894882906447,-3.238266937463876e-07,29.533333333333328,0.015563490039905,-4.861112429772522e-07,66.85566666666666,0.053459226414988854,0.21999999999999886,-4.774306850669319e-05
S085,9223.0,9252.984375,W,0.5356562500000002,71.2690861255671,-144.71,106.57,251.28,12.445,13.476795925508377,906.25,901.9612630208334,0.5750566095321978,0.4860008555519447,0.40839577541277283,64.11963997996578,0.3489539218486612,64.51356446515724,0.12916666666666668,67,0.287571025,0.0011326713002345315,-3.027767748417869e-07,29.533999999999992,0.011999999999999744,1.111111412519348e-06,66.87166666666667,0.14040615687671362,0.4099999999999966,0.0002487153452461299
S085,9253.0,9282.984375,W,0.33566666666666656,73.25540587541798,-172.5,116.74,289.24,9.495000000000001,11.518099998090817,906.25,899.4873046875,0.9226597413260692,0.4948070173057372,0.34850717103653533,64.14813908677174,0.33634313459442633,65.14598989960932,0.0020833333333333333,2,0.2879766583333333,0.0012861340229270637,8.116770865009409e-07,29.531999999999993,0.013012814197295145,-3.4722231641229667e-07,66.91000000000001,0.12428461959014318,0.45000000000000284,-0.00017541671425149615
S085,9283.0,9312.984375,W,-0.6287291666666666,77.28630604602053,-168.06,115.77,283.83,8.86,28.925525550533496,906.25,906.1848958333334,0.5140347953527401,0.4756391898160715,0.21809425523536072,64.1511149726,0.3308289168959723,64.47480127925948,0.0,0,0.2881688833333333,0.0012058966386285178,-6.647423678229095e-07,29.521333333333327,0.012310790208412964,-9.027780226717604e-07,66.08099999999999,0.29637082627456235,0.7800000000000011,-0.000500590413571619
S085,9313.0,9342.984375,W,0.690708333333333,84.42745239638643,-191.7,133.33,325.03,6.865,22.606472712256334,937.5,916.845703125,0.7126065953401092,0.4207495275464437,0.2827199242281229,63.95136682107084,0.3175007351760691,64.56779382943171,0.284375,145,0.28952465,0.0011091730827512904,6.516199684298946e-07,29.52199999999999,0.015143755588800907,-6.666668475116212e-06,65.76433333333334,0.3171296615301421,1.230000000000004,-0.0003750348239569289
S085,9343.0,9372.984375,W,-0.31993750000000004,80.6280238366822,-164.12,121.5,285.62,10.29,24.920905349135005,906.25,901.7415364583334,0.5163809693971647,0.46679685683984157,0.32461916789781015,63.994696794907185,0.3021293231343529,64.66065264130884,0.22395833333333334,125,0.2911686083333334,0.0011545056755731134,1.0213676815775967e-06,29.516,0.018000000000000432,-1.993056096206677e-05,65.181,0.18946151764056662,0.6800000000000068,0.00018107643800901606
S085,9373.0,9402.984375,W,0.16202083333333336,77.52768757622165,-150.07,113.12,263.19,11.280000000000001,23.71849731391129,843.75,843.4326171875,0.6930638185601828,0.42522461384804877,0.29456152677421327,63.95944241524523,0.28346239773537885,64.57553716385176,0.20416666666666666,120,0.29145683333333333,0.001259445078419673,-6.808339520491347e-07,29.49333333333334,0.013743685418726446,-7.638890961066559e-07,66.22999999999999,0.8116937024929213,2.5999999999999943,0.0013320142502208801
S085,9403.0,9432.984375,W,0.18955729166666663,74.22616832232704,-146.4,114.87,261.27,9.99,22.765218372272763,859.375,851.7496744791666,0.4221398345697259,0.4987734521776618,0.3835130353246013,64.02993415767263,0.3320242422499651,64.57553716385176,0.3177083333333333,166,0.292012,0.001228436933668149,1.159647015963275e-06,29.48533333333334,0.013349989596334228,-7.708335424353213e-06,69.46566666666668,0.7187706325541003,2.539999999999992,0.001279062846968002
S085,9433.0,9462.984375,W,-0.7445677083333331,77.1835509335309,-152.68,118.81,271.49,8.52,15.778453482604283,906.25,900.1139322916666,0.47696960070847283,0.2802451184033165,0.4735678336369094,63.97654096936781,0.33868214420190107,64.51356446515724,0.29375,152,0.29416884166666674,0.0012630881665969455,7.483363575131154e-07,29.482000000000003,0.017587874611031125,7.916668814201058e-06,70.16833333333332,0.5655857337506147,1.7800000000000011,-0.000965034984004714
S085,9463.0,9492.984375,W,0.7314843750000001,83.14660553325602,-189.38,141.24,330.62,12.155,33.10740117347395,890.625,894.873046875,0.45516780902761567,0.4304743426991,0.4979896651510171,63.99249684036623,0.34751230537144756,64.56779382943171,0.29583333333333334,177,0.29446775,0.0012813549420437704,-8.556964126780613e-07,29.486000000000004,0.014047538337137696,-8.194446667330477e-06,67.905,0.5311606787655372,1.9399999999999977,-0.0009539933143428036
S085,9493.0,9522.984375,W,0.05526041666666668,88.72868513194976,-198.02,141.63,339.65,10.0,18.117316287201977,859.375,862.2639973958334,0.7150713530344756,0.4115189828718584,0.49999023427963085,64.0074170064339,0.3528831220255929,64.56779382943171,0.31979166666666664,173,0.29541814999999993,0.0011289158416374523,6.836069562735842e-08,29.474000000000004,0.01496662954709545,-5.55555706259674e-07,66.89366666666668,0.3918203953627498,1.1999999999999886,0.0005395487574730782
S085,9523.0,9552.984375,W,-0.21857291666666623,83.18935537778717,-190.71,127.36,318.07,8.97,13.258092300458713,890.625,889.7786458333334,0.5081967029496443,0.48626981536317193,0.43576541057724566,64.05183084513644,0.3482796568303932,64.56779382943171,0.40625,180,0.2965177833333333,0.0011313317829246923,2.788225582743526e-07,29.476666666666674,0.013984117975602287,-2.222222825038548e-06,67.53133333333334,0.14614452511887666,0.37999999999999545,-0.0002483334006980781
S085,9553.0,9582.984375,W,0.24759895833333356,87.00234903686749,-176.85,135.0,311.85,11.34,19.001257444901018,859.375,862.4755859375,0.8745379484412834,0.49658556384798597,0.46396165430633024,64.0013848645798,0.3272772768408676,64.56779382943171,0.2833333333333333,164,0.29831119166666664,0.001248564184011856,9.810864206506059e-07,29.46266666666667,0.015040685563570985,-8.819446836872326e-06,67.68033333333332,0.201700823553655,0.5800000000000125,0.0002748264634403397
S085,9583.0,9612.984375,W,-1.02671875,87.20719543232025,-175.68,136.26,311.94,9.75,34.0923819480648,875.0,872.3225911458334,0.5171368828033401,0.4979079497144917,0.4260964206869405,63.973923097875954,0.3189777427765802,64.63745044476924,0.23333333333333334,136,0.30042529999999995,0.0013740896841181833,1.2844408866213372e-06,29.44333333333333,0.013984117975601722,-7.638890961070518e-06,68.20433333333334,0.43404825640576816,1.2099999999999937,0.0007681599305989362
S085,9613.0,9642.984375,W,-0.6426666666666667,86.90837516563381,-188.46,139.53,327.99,10.0,22.9730951721723,890.625,888.6881510416666,0.5008575545307823,0.4999609359740019,0.4667213044651665,63.96681339665013,0.3177271546607332,64.60650122085238,0.21145833333333333,144,0.30192025,0.001127816867891246,4.535053313545295e-07,29.428000000000004,0.013999999999999702,-5.902779379009037e-06,68.83033333333333,0.30326537700319256,1.0,-0.00048434040916352087
S085,9643.0,9672.984375,W,1.3199114583333331,91.80712283120654,-184.88,158.33,343.21000000000004,13.004999999999999,19.352820974815568,875.0,878.9957682291666,0.4506168611531925,0.45039406935297593,0.4795107460271934,63.91863024567747,0.31517061469379515,64.63745044476924,0.140625,112,0.3015572166666666,0.0011586135621461176,-5.219415478357131e-07,29.42666666666667,0.012736648783028263,-6.875001864963466e-06,67.72999999999999,0.17154202594893986,0.75,-0.00027222229606724654
S085,9673.0,9702.984375,W,-0.13359895833333335,85.2966121788135,-187.52,135.19,322.71000000000004,8.34,22.471402443968667,890.625,899.4954427083334,0.4417010599816225,0.49607837082461076,0.4843369160655513,63.86819132446485,0.3111997347161218,64.72248450113763,0.065625,56,0.30076703333333327,0.001226823676092959,-1.9050265584382152e-07,29.424000000000003,0.01171893055416438,1.5972226554965621e-06,66.24933333333334,0.4873939770749008,1.5499999999999972,-0.0008011807728897505
S085,9703.0,9732.984375,W,0.11109374999999962,83.62859718441341,-171.97,131.48,303.45,9.620000000000001,14.041225211338212,906.25,905.5826822916666,0.35646314286644304,0.49975579974123363,0.49914858064063,63.90748704460516,0.3303654193333644,64.63745044476924,0.13125,102,0.3001903583333333,0.001321301781046717,5.379699810031432e-07,29.43066666666667,0.009637888196533769,-6.944446328245928e-08,66.29866666666666,0.18229524282206544,0.5100000000000051,-0.00025354173544426623
S085,9733.0,9762.984375,W,0.13186458333333312,78.88828423039125,-156.85,118.54,275.39,10.68,16.163797536876164,875.0,874.5930989583334,0.7540796162928244,0.4963364044565831,0.4724977494802371,63.81634242584648,0.32828755754827155,64.72248450113763,0.04895833333333333,39,0.30054281666666666,0.0012444073086100977,3.170790790687533e-08,29.432000000000002,0.011944315244779024,3.4722231641229667e-07,67.085,0.5613658937508283,1.5499999999999972,0.0009792016545143373
S085,9763.0,9792.984375,W,-0.14698958333333334,81.03612410009846,-183.16,128.55,311.71000000000004,8.95,47.001846489132674,859.375,845.0032552083334,1.1693788229642363,0.5413370391267861,0.5672790808372503,63.77565765444242,0.30766444387943753,64.64518543557594,0.203125,110,0.3011514249999999,0.0012411989543884671,7.422308871069082e-07,29.429333333333336,0.01671991493864558,5.069445819619526e-06,67.97133333333333,0.3963141290553358,1.25,0.0006631946243475004
S085,9793.0,9822.984375,W,-0.6606979166666669,76.17467583231809,-156.46,120.84,277.3,9.184999999999999,35.739533094776455,828.125,835.6201171875,0.590902345229076,0.47794681683449075,0.5385124508516236,63.728872053495955,0.3515325340221362,64.82283548256741,0.2677083333333333,149,0.30404465833333333,0.0012808527725427944,7.806297690510491e-07,29.42533333333334,0.014313940369055624,5.486112599314281e-06,69.89333333333335,0.6028782814318505,1.9200000000000017,0.0010850697387884483
S085,9823.0,9852.984375,W,0.1799166666666667,73.61683068283178,-156.13,121.12,277.25,9.355,38.87893269263079,890.625,886.279296875,0.5476234957117487,0.3018964939437945,0.4243548514280891,63.608335645734726,0.29128115779546,64.29618962271404,0.18958333333333333,105,0.3039058833333333,0.0013115796276712405,-1.306860597564186e-06,29.430000000000003,0.01154700538379227,2.0833338984737777e-06,70.44466666666668,0.4076169225578786,1.2000000000000028,-0.000710555748306138
S085,9853.0,9882.984375,W,0.6233333333333334,68.57215382303924,-144.01,114.87,258.88,9.67,28.356908779139815,890.625,877.4495442708334,0.4152005455867749,0.25331140255951107,0.3564737966644018,63.65088742378486,0.2718550434806098,64.50581369148055,0.009375,8,0.30322267499999994,0.0009944952837369332,-3.25253994480808e-08,29.44066666666667,0.012364824660660675,2.916667457863287e-06,68.703,0.6779879546619295,2.0,-0.0011845489324405743
S085,9883.0,9912.984375,W,-0.30948437499999976,75.95317125946453,-165.87,121.04,286.91,10.370000000000001,24.661484973091472,875.0,872.0377604166666,0.7322879622950402,0.48474000584219257,0.5586665283785628,63.63125982715954,0.3231709689585349,64.69930447848725,0.1125,86,0.30356428333333335,0.0012073495985237906,4.139627859056796e-08,29.429333333333336,0.01412641340027776,-8.541668983742488e-06,68.06166666666667,0.25987283214851276,0.6899999999999977,0.0004452431763354974
S085,9913.0,9942.984375,W,0.18710937499999977,81.7601621552618,-165.67,123.29,288.96,11.215,36.31516821449735,843.75,857.5358072916666,0.5664205577694801,0.36054910861382283,0.49102624250984106,63.62116909576199,0.32591085968100053,64.50581369148055,0.07083333333333333,53,0.30305185,0.0012692392514809827,3.015482588835311e-07,29.442,0.013266499161421317,1.0277780565803969e-05,69.00133333333333,0.4080255983255091,1.2000000000000028,0.00063069461553131
S085,9943.0,9972.984375,W,-0.22507812499999957,71.55729018076866,-173.83,224.88,398.71000000000004,8.625,82.7535167304085,843.75,845.703125,1.986346352375945,1.805839954898643,1.9118119563903826,63.724520955042664,0.49266694327276267,66.2872536767062,0.09479166666666666,53,0.29976319999999995,0.0010779701109028897,7.537241627941055e-08,29.474000000000004,0.021540659228537953,1.3055559097102172e-05,70.57999999999998,1.0241158788600708,2.6400000000000006,0.0017984727100891697
S085,9973.0,10002.984375,W,0.048567708333333924,75.18776820526145,-181.88,127.98,309.86,5.915,79.10420438229595,890.625,873.4781901041666,0.8886802598047661,0.509591169195682,0.5451162194508006,63.68111926215976,0.34376520851431247,64.72248450113763,0.10625,76,0.30167465,0.0012259505403971352,5.87786183752768e-07,29.476000000000006,0.015620499351813493,8.958335763437713e-06,72.51266666666668,0.6087634096173075,1.9500000000000028,0.0010846530720087554
S085,10003.0,10032.984375,W,0.2644114583333335,77.97953183813868,-165.06,185.67,350.73,9.84,40.086901858143285,867.1875,858.9599609375,1.7030291129990178,0.6561797250732625,0.5753838920789223,63.827295624614415,0.3117155456673165,64.76109943476871,0.14895833333333333,91,0.304589075,0.0011031464632472907,-2.1155409384605199e-07,29.528,0.02891366458960208,4.451390096405768e-05,73.096,0.8767804742351417,2.280000000000001,-0.0014331948332234243
S085,10033.0,10062.984375,W,-0.38084375000000004,72.28328806981541,-159.32,117.23,276.55,10.16,47.476027836475275,843.75,839.1276041666666,0.6800607611742416,0.4876057132532618,0.4932706885901717,63.854661677198806,0.32897379401003934,64.72248450113763,0.028125,21,0.304119375,0.0013842556968909348,-1.4575270880878628e-06,29.578666666666663,0.016069294390924922,1.2569447854125124e-05,71.52833333333334,0.6117683839130258,1.6299999999999955,-0.0010537850080796995
S085,10063.0,10092.984375,W,0.3006406249999998,66.56599071328904,-151.81,113.52,265.33,11.370000000000001,60.69443472341561,812.5,830.4443359375,0.41985111241632106,0.4994745502914926,0.4222940305804581,63.82917233023332,0.32482247055567287,64.82283548256741,0.016666666666666666,16,0.3036496833333333,0.0013786773007931287,8.303721870584327e-07,29.628,0.016613247725836097,1.7986115990157305e-05,71.889,0.7165489050534743,1.7800000000000011,0.0012270489439694396
S085,10093.0,10122.984375,W,0.1869010416666665,70.573767504076,-154.96,107.06,262.02,8.635000000000002,25.24610290836724,906.25,910.7259114583334,0.4785491945424444,0.43379382583588405,0.48530376906004846,63.88773741414503,0.28637056631970004,64.73020933072904,0.03229166666666667,29,0.30521891666666673,0.0011895429975648428,8.807337458587623e-07,29.67066666666667,0.015040685563572116,1.6041671018249545e-05,71.23266666666669,0.7269705786496605,2.510000000000005,-0.0013084725771681253
S085,10123.0,10152.984375,W,-0.12397916666666677,79.39099089513914,-169.48,122.92,292.4,9.620000000000001,18.926340503213517,890.625,899.6175130208334,0.9126991553978173,0.4637359143563165,0.4293082290797086,63.90420084218964,0.29402050000570695,64.73020933072904,0.06458333333333334,47,0.306841675,0.001364006550341666,7.228893019990425e-07,29.68466666666667,0.014544949486180925,1.708333796748526e-05,67.54466666666667,1.3756155793760925,4.079999999999998,-0.002449375664435673
S085,10153.0,10182.984375,W,-0.6350989583333336,71.34083886738863,-149.08,128.98,278.06,6.125,19.99883641725848,890.625,893.5139973958334,1.0960981737952227,0.46985517863368165,0.5026136117419955,63.824831010119034,0.3248536025352207,64.5600495662759,0.31666666666666665,129,0.3071192833333333,0.001405376836672476,1.4202851074992053e-06,29.718666666666664,0.01687865186822919,1.5486115311988416e-05,66.00533333333333,0.20234843436233596,0.6499999999999915,0.0001240972558857577
S085,10183.0,10212.984375,W,0.9766770833333335,77.65021393442771,-171.62,115.72,287.34000000000003,11.065000000000001,27.173873975053056,906.25,915.6901041666666,0.5598510156481117,0.26045624699212383,0.3241910337885502,63.79824020572285,0.2503430703817564,64.72248450113763,0.06770833333333333,43,0.30828315,0.0013240813900587888,1.4196909233102618e-06,29.736000000000004,0.013808210118138358,1.5347226385423493e-05,65.83933333333333,0.2006976720232584,0.5999999999999943,0.00026708340578434297
S085,10213.0,10242.984375,W,-1.0171197916666668,81.32758228484448,-183.61,136.0,319.61,3.175,71.63570208259434,921.875,895.99609375,0.7858089206176156,0.3908665919573241,0.4667027050816779,63.791051394170275,0.3056610753647094,64.72248450113763,0.10625,72,0.3095004833333333,0.0010929368537975618,5.39652490140111e-07,29.75533333333333,0.01359738536958047,8.194446667330191e-06,67.15166666666667,0.8662681776191232,2.6300000000000097,0.0015151740221283705
S085,10243.0,10272.984375,W,-0.21984375000000023,78.3236485558518,-170.28,147.94,318.22,11.47,56.38375979566791,937.5,928.2470703125,1.0716391058858803,0.49644570028688256,0.489454770353934,63.74552280413802,0.3307024248246666,64.72248450113763,0.14479166666666668,75,0.31037590000000004,0.001052463486302497,-3.116802060764444e-07,29.784,0.013808210118138358,8.40278005717757e-06,67.06766666666667,0.40023895640257545,1.1700000000000017,-0.0007103821371479328
S085,10273.0,10302.984375,W,0.8637083333333332,71.70604190822483,-145.45,118.24,263.69,11.004999999999999,13.789477079437127,921.875,920.0358072916666,0.6370496434846258,0.5242016085332903,0.4040592640800219,63.61201346987899,0.3419804691314521,64.56779382943171,0.20833333333333334,117,0.31092035000000007,0.0011923549712648549,8.356525704352739e-07,29.784666666666666,0.01359738536958047,-4.305556723512474e-06,64.65133333333334,1.1549739775808314,3.539999999999999,-0.0019970144306137223
S085,10303.0,10332.984375,W,-0.1713020833333335,73.52404924490408,-167.36,124.93,292.29,8.74,20.196036303904904,890.625,891.5201822916666,1.5461632060433408,0.5316287457087784,0.5713187944839165,63.63829925361974,0.35676991662323126,64.5600495662759,0.16458333333333333,99,0.31174232500000004,0.0012720282698804315,-4.7509322783562114e-07,29.787333333333336,0.012364824660660675,2.0833338984737773e-06,64.643,0.5446414722855146,1.6799999999999926,0.0009608683162077677
S085,10333.0,10362.984375,W,0.33766666666666684,75.19324292956043,-168.17,115.17,283.34,11.760000000000002,18.814984489509094,921.875,917.1712239583334,0.669459482167434,0.4974315541274666,0.4801620096962644,63.71721276577008,0.36532728922632174,64.72248450113763,0.053125,32,0.312799175,0.0012665788346466994,-4.781587668616416e-07,29.795333333333335,0.01359738536958047,1.2500003390842668e-05,66.26766666666667,0.27185392319323876,0.8499999999999943,0.0003605209311308944
S085,10363.0,10392.984375,W,-0.4408385416666664,79.4158486476866,-161.74,123.28,285.02,10.955,21.63197840046212,921.875,923.0550130208334,0.9810437460160594,0.5016628166380505,0.4999609359740019,63.796663816865184,0.3166530770678964,64.72248450113763,0.14375,93,0.31299130833333333,0.0011410025036185832,4.3423080355653457e-07,29.822666666666667,0.01749920633120947,1.979167203550216e-05,66.26033333333335,0.26405155220566706,0.7999999999999972,-0.00037392371254441005
S085,10393.0,10422.984375,W,-0.5097135416666666,82.38377489347761,-181.22,132.86,314.08000000000004,9.465,37.07074926932135,937.5,935.2864583333334,0.726452537975163,0.23891210320022624,0.3259451401309736,63.74027602148816,0.25844929451348575,64.5600495662759,0.10104166666666667,66,0.31052535833333333,0.001193305058760708,-1.6206579917149495e-07,29.865333333333336,0.023485219938411517,3.756945463581121e-05,64.98966666666666,0.30243989301824575,0.9699999999999989,-0.00015538198659450472
S085,10423.0,10452.984375,W,0.5906874999999997,82.50814493409025,-180.24,137.08,317.32000000000005,11.83,24.651702594742503,937.5,936.4420572916666,0.9499811538700825,0.26319146692833506,0.30786669362187696,63.74110592099946,0.2490802439530629,64.72248450113763,0.08854166666666667,62,0.3114861083333333,0.001254822648795664,-3.428188863983506e-07,29.915333333333344,0.01257864150940854,9.166669153284622e-06,64.50866666666667,0.44495492905337025,1.2899999999999991,-0.0007753474325486761
S085,10453.0,10482.984375,W,0.6357395833333335,86.06574541069665,-210.0,143.75,353.75,8.98,15.818972851373209,921.875,928.9713541666666,0.7408703590297623,0.5038738819276991,0.506879752341059,63.79696044312,0.33217197199869014,64.5600495662759,0.20104166666666667,119,0.3125643083333334,0.0013014995889090986,9.679983094613464e-07,29.929333333333332,0.01412641340027776,7.708335424352977e-06,64.092,0.14234699387997848,0.6099999999999923,7.687502085368483e-05
S085,10483.0,10512.984375,W,-0.7440520833333334,89.07768265581801,-175.85,146.53,322.38,10.39,25.813699459915807,937.5,934.0494791666666,0.6458198923332521,0.4878192953651542,0.4860008555519448,63.68010918644574,0.3650716856754454,64.72248450113763,0.19583333333333333,130,0.31452874166666667,0.0018858951742511734,2.5391033363452936e-06,29.930000000000003,0.014605934866804117,4.72222350320723e-06,63.542666666666655,0.11245542326727591,0.4199999999999946,0.00013263892486950048
S085,10513.0,10542.984375,W,0.03324479166666698,83.41506855243088,-184.42,143.05,327.47,11.455,18.126043457746707,921.875,926.7008463541666,0.7786094264063909,0.5337959826016554,0.4823985212802101,63.58886349412786,0.35821016899686425,64.66838485689897,0.21041666666666667,128,0.3183724416666666,0.0015337593618069893,1.8304139079898965e-06,29.94533333333333,0.012310790208412664,1.215278107443037e-05,63.767,0.26739670902985957,0.7499999999999929,-0.0003660070437302083
S085,10543.0,10572.984375,W,-0.18650520833333342,88.97684393182128,-202.96,154.93,357.89,11.515,14.070626253880995,906.25,910.6608072916666,0.5624845676895401,0.5407032698640417,0.4122355528598506,63.701139030137405,0.34804635194870404,64.78425734698207,0.28125,143,0.3194506916666667,0.0011277258960391175,9.148201266330151e-08,29.955333333333336,0.014544949486180642,4.583334576642311e-06,64.30133333333333,0.29955225847179856,1.0399999999999991,0.000517569584844179
S085,10573.0,10602.984375,W,0.7070468750000002,86.72653222424863,-183.9,144.69,328.59000000000003,14.925,14.908070106378808,921.875,924.6175130208334,1.0444774577377063,0.5334869163630497,0.4983207478204508,63.678978625892476,0.3325625201301896,64.5600495662759,0.13645833333333332,87,0.31969621666666664,0.0010581241671257522,1.5900481743837143e-07,29.976000000000006,0.013808210118138651,9.65278039626212e-06,64.78833333333334,0.056925877731972295,0.21999999999999886,7.670140969547562e-05
S085,10603.0,10632.984375,W,-1.4658229166666672,86.14930434129735,-202.73,230.19,432.91999999999996,7.72,39.41321289840549,906.25,909.7900390625,0.911557137501844,0.6662360262762239,0.49712607213585386,63.63465945144658,0.35635866541875066,64.66838485689897,0.15625,88,0.31992040833333335,0.0011740907226149794,-3.5114744768540013e-07,29.992666666666665,0.023513589451398836,3.1944453109933726e-05,64.99366666666667,0.21761561422737086,0.5600000000000023,0.00034565981598844983
S085,10633.0,10662.984375,W,1.5739322916666671,83.1140022888091,-190.06,142.53,332.59000000000003,11.934999999999999,18.014186963854044,906.25,900.8544921875,0.4656972352618765,0.5726618751618523,0.46367624450927203,63.7181247745399,0.3687707727423862,64.389440128021,0.27395833333333336,157,0.32106274166666665,0.0012640394343521155,1.019819070046402e-06,30.03733333333333,0.015902480589168766,2.02083388151959e-05,65.50266666666667,0.26525375691129394,0.9300000000000068,0.000473889017439513
S085,10663.0,10692.984375,W,-0.3459270833333335,78.02222192116498,-176.23,133.41,309.64,10.02,40.76217494324053,906.25,910.4085286458334,0.7856121275353096,0.6009216012370776,0.5016465942828232,63.73412912464869,0.34664062457626976,64.81512169239521,0.334375,162,0.322151925,0.0012026738208570872,9.58821223638563e-07,30.044000000000004,0.009165151389911485,-6.250001695421333e-07,66.64866666666667,0.278971125546874,0.9300000000000068,0.00023256950753295944
S085,10693.0,10722.984375,W,0.18447916666666633,80.16744398080952,-168.38,127.41,295.78999999999996,10.629999999999999,20.52472582721852,921.875,921.8017578125,0.5490986537929429,0.5846330386922685,0.4728707760406994,63.70597830830574,0.3421663070459467,64.81512169239521,0.321875,169,0.3237428916666667,0.0013719040284450982,1.4121772493970403e-06,30.058,0.012220201853215313,3.3333342375580447e-06,66.201,0.1735578673910608,0.6799999999999926,-0.00029642369152118263
S085,10723.0,10752.984375,W,0.045755208333333526,77.56852644632784,-159.79,125.1,284.89,9.825,48.01669460840018,921.875,920.3206380208334,0.8716602931570686,0.6043246919771964,0.481588084708637,63.691672188065944,0.35068108200936665,64.41273166075166,0.24375,128,0.32473579166666666,0.0012909452860587216,-3.691600393771807e-07,30.074666666666666,0.01910206504252546,1.8958338476111377e-05,64.89133333333334,0.510899424762078,1.4500000000000028,-0.00085625023227274
S085,10753.0,10782.984375,W,-0.9262916666666666,73.33092994758373,-150.75,123.76,274.51,7.78,16.40959004306639,843.75,841.6910807291666,0.4506168611531925,0.5634935284430711,0.34471298195825983,63.64056997176405,0.36046775491849675,64.52131430775415,0.12916666666666668,78,0.32548304999999994,0.0016853488701650688,1.9838230207853287e-06,30.092666666666666,0.014360439485691705,7.5000020345056005e-06,65.98733333333332,0.920347518905525,3.0,0.001655417115727299
S085,10783.0,10812.984375,W,1.0340520833333333,77.85116009450205,-170.44,132.69,303.13,12.065,35.46253207726728,953.125,950.7893880208334,0.604809284678512,0.629110614224999,0.44587105564713314,63.69006352306001,0.39366876336098683,64.52131430775415,0.22916666666666666,131,0.32676406666666663,0.0013920663701450767,1.5256662124745603e-06,30.111333333333338,0.010241527663824591,7.083335254810844e-06,67.50666666666667,0.2346960208913266,0.6899999999999977,-0.0003834723262457471
S085,10813.0,10842.984375,W,-0.0067395833333331245,74.36267865862789,-157.02,118.66,275.68,9.405000000000001,16.253807648806838,906.25,906.6650390625,0.9201425576446777,0.5513713963080299,0.5062274943557162,63.5774694644296,0.3625164357477615,64.72248450113763,0.05625,50,0.32877111666666664,0.001124142481948891,5.004654135377079e-07,30.118000000000006,0.011075498483890531,5.555557062596741e-06,65.52666666666667,0.8505148767397046,2.8400000000000034,-0.0015228476353210808
S085,10843.0,10872.984375,W,-0.14023958333333322,82.40355817272658,-177.7,136.84,314.53999999999996,7.6,23.38624081932924,921.875,918.9371744791666,0.955316242541646,0.5601184150596095,0.49749371855330987,63.77532602839176,0.32989640647153984,64.5600495662759,0.14270833333333333,98,0.3300204666666667,0.001013090559734031,2.288229787388692e-07,30.144666666666662,0.01627540748764551,2.2222228250387888e-05,64.20700000000001,0.23354014644167814,0.730000000000004,0.00035017370610181006
S085,10873.0,10902.984375,W,-0.9935781249999998,81.77428198030807,-197.03,126.78,323.81,5.83,23.518716884164743,921.875,912.4674479166666,0.8828953070800009,0.5167664134226089,0.48317952833002165,63.738819804245075,0.32808783677787956,64.72248450113763,0.1375,85,0.3310882583333334,0.0012882890041694384,2.377676426235965e-07,30.166000000000004,0.012000000000001046,-5.55555706259563e-07,65.45433333333332,0.4713221356519915,1.3499999999999943,0.0008326043925250609
S085,10903.0,10932.984375,W,-0.004557291666666904,83.56030790886808,-170.46,127.73,298.19,12.15,35.09334635160373,906.25,910.6282552083334,0.7034112071817514,0.5672628221336208,0.406201920231798,63.5983001967104,0.35202332655406526,64.66838485689897,0.05,40,0.33215589999999995,0.0011982785944846092,5.09003610298288e-07,30.178666666666672,0.011175369742826872,6.736112938398461e-06,66.49833333333332,0.20516795287980355,0.730000000000004,0.0003330903681343243
S085,10933.0,10962.984375,W,0.6581458333333335,81.6456720122561,-172.01,132.86,304.87,9.41,21.028141925076987,906.25,897.3958333333334,0.63680176904242,0.5191378653728592,0.33844389613839,63.63211459289729,0.35477801001079223,64.5600495662759,0.07916666666666666,61,0.3335329999999999,0.0010760061105774483,3.547214503910187e-07,30.19,0.012649110640673247,1.0555558418933806e-05,66.49266666666666,0.2779680237405411,0.8399999999999892,-0.00033555564658084753
S085,10963.0,10992.984375,W,0.23254166666666667,80.84924368074363,-170.2,126.3,296.5,11.64,10.97999371303586,921.875,917.0003255208334,0.8266371592516003,0.49789487400008003,0.3635625590940299,63.67119691330315,0.3171098033387335,64.5600495662759,0.09583333333333334,61,0.3341735083333333,0.0010760375302921498,3.547242715723402e-07,30.208666666666666,0.014544949486180644,1.208333661114791e-05,67.05166666666666,0.17901737966527909,0.5,0.00022128478224956192
S085,10993.0,11022.984375,W,-0.9691458333333333,81.57373754066766,-169.72,121.2,290.92,11.925,15.913356120494502,921.875,919.7509765625,0.8412843345725761,0.5363834899247821,0.4977978850648122,63.69821653552529,0.3604421266527022,64.5600495662759,0.12291666666666666,77,0.3338105583333333,0.0012359348135172407,-1.8625026753750803e-07,30.233999999999998,0.013063945294843338,5.6944459891616595e-06,66.51766666666667,0.3915327430610233,1.4500000000000028,-0.0006422571186678388
S085,11023.0,11052.984375,W,0.9476249999999999,79.58386447893217,-175.7,121.86,297.56,14.705,38.01304201743695,921.875,924.7965494791666,0.6913834447745573,0.3752545432399483,0.4871793817476268,63.78881109992519,0.35218857362811706,64.5600495662759,0.3229166666666667,146,0.33293519999999993,0.0011085564757828132,-2.4852741116737577e-07,30.260666666666665,0.016918103387265668,1.3611114803362015e-05,64.76833333333333,0.2843364595373272,0.9000000000000057,-0.00039815983022998625
S085,11053.0,11082.984375,W,0.16317187499999986,77.33188314951101,-168.05,126.47,294.52,9.855,19.83009589510155,906.25,899.5361328125,0.7552701124156399,0.24316837659325688,0.4970387570820476,63.842705066792085,0.3440708569466456,64.73020933072904,0.07395833333333333,51,0.333351525,0.0011959335472236775,7.141688135223567e-07,30.29533333333334,0.012578641509408538,1.5277781922141044e-06,65.397,0.4135629738423572,1.5,0.000738437700314048
S085,11083.0,11112.984375,W,-0.1871041666666668,79.9308470234426,-172.63,132.16,304.78999999999996,8.425,46.145973147947565,906.25,904.5654296875,0.8435564335580769,0.436561493377508,0.36968308264947997,63.902877695646524,0.3084459140733899,64.73020933072904,0.03854166666666667,33,0.336479525,0.0014602395006898662,1.5960275596862936e-06,30.3,0.011254628677422515,-3.125000847710666e-06,66.49166666666667,0.18972055473482177,0.6299999999999955,-4.9652791246950776e-06
S085,11113.0,11142.984375,W,-0.016666666666666607,87.67671760883684,-210.45,146.92,357.37,11.55,58.70801789664004,906.25,910.0504557291666,1.728498553156435,0.5275566057042811,0.8301998378904524,63.86043007614865,0.3364206038003141,64.72248450113763,0.17604166666666668,71,0.3367890916666667,0.0012978954182048738,3.634925031175393e-07,30.291333333333338,0.013597385369580469,-6.944446328245926e-07,66.53666666666666,0.311001964981288,1.0,-0.0004092362221235406
S085,11143.0,11172.984375,W,-1.1409791666666669,75.85742105862967,-175.46,120.19,295.65,6.415,11.033112553311238,906.25,903.6865234375,0.8516470714885364,0.2547274380751578,0.4684443447909971,63.74672370166358,0.30449516213224526,64.77653896280658,0.128125,88,0.33704542500000007,0.0011832904099902892,-9.863819950037907e-07,30.282666666666668,0.013148721948877068,-1.4583337289316456e-06,66.04433333333334,0.322920870940374,0.9000000000000057,0.00046954873848435973
S085,11173.0,11202.984375,W,0.9105989583333333,80.90926282664839,-161.64,127.54,289.18,11.195,29.366557574204837,843.75,848.2584635416666,0.7112005389460995,0.30815732589052625,0.37463958374460826,63.74048879092662,0.2701950414528233,64.59876159803684,0.09479166666666666,67,0.33566802500000004,0.0012486327620141165,-9.485551618259472e-07,30.30333333333333,0.01490711984999828,1.5138892995576119e-05,67.34833333333333,0.9083137612570272,2.5600000000000023,0.0015732295934325054
S085,11203.0,11232.984375,W,0.641151041666667,79.75662521904593,-189.99,120.41,310.4,11.58,39.659138922896766,921.875,931.3069661458334,0.6072469966418571,0.5711516372280949,0.6039789579093151,63.74973762592518,0.23521825120344433,64.64518543557594,0.06041666666666667,46,0.33460050833333327,0.0011378033221653735,-7.466753327569846e-07,30.331999999999997,0.016613247725837107,1.9236116329243066e-05,68.97666666666667,0.2610406524321865,0.75,-0.0003990973304843009
S085,11233.0,11262.984375,W,-0.9732291666666664,74.4529658533772,-151.22,110.84,262.06,9.465,17.29001194340338,921.875,925.0244140625,0.5880307516878309,0.23989789132855857,0.37182539351675387,63.76766724950146,0.24201630149826076,64.5600495662759,0.10520833333333333,75,0.334162825,0.0011417260592519577,4.222742030908771e-07,30.363333333333337,0.013984117975601722,9.027780226719704e-06,66.89833333333333,1.0900430674468276,3.530000000000001,-0.001963576921543219
S085,11263.0,11292.984375,W,0.5408958333333335,75.88220372605478,-177.57,121.11,298.68,8.49,20.46652376526804,890.625,884.3994140625,0.581391858435905,0.44111108924573134,0.408758282281024,63.77287186457777,0.2776042941738451,64.64518543557594,0.14375,85,0.33281775,0.0017223694834442498,-2.3299155625856075e-06,30.392666666666667,0.019821424996424253,2.7916674239548624e-05,65.49333333333333,0.5296434859622293,1.3800000000000097,0.0008979169102422174
S085,11293.0,11322.984375,W,-0.30228124999999956,76.5773657602236,-188.75,143.95,332.7,8.55,27.315756379857625,828.125,832.0963541666666,1.6705046954438647,0.4962872134801469,0.7628414536018171,63.74367143330039,0.3347544425052965,64.64518543557594,0.11666666666666667,89,0.3300525083333333,0.0010871741503843243,-4.7669392271427943e-07,30.414666666666673,0.012310790208412664,-4.791667966489689e-06,67.64866666666667,1.0461826906531295,3.2099999999999937,0.0018789588430335395
S085,11323.0,11352.984375,W,0.29592708333333334,76.18040150534465,-173.05,133.75,306.8,11.129999999999999,52.241621449939224,875.0,889.84375,1.3009595150204414,0.46543270637834067,0.6226126278634252,63.64758961261023,0.34454535949509224,64.64518543557594,0.12708333333333333,78,0.329486525,0.0011774961780723478,1.4048897040173931e-07,30.405333333333335,0.01431394036905562,7.638890961070519e-07,70.12166666666666,0.211283117062284,0.7999999999999972,0.00019142366303810272
S085,11353.0,11382.984375,W,0.018041666666666543,71.89878354121575,-158.09,119.19,277.28,11.735,15.356423749101623,890.625,890.3889973958334,1.4288143394670514,0.4988876515698588,0.6458165320395225,63.61244278442739,0.33978865679273845,64.64518543557594,0.196875,116,0.32919816666666674,0.0012472483402362986,-3.837023610303684e-07,30.405333333333335,0.01431394036905562,-2.70833406801591e-06,68.878,0.7135143072613647,2.25,-0.0012802781250754447
S085,11383.0,11412.984375,W,-0.5052656249999998,70.77767896019157,-169.11,136.01,305.12,6.859999999999999,25.32190135205539,890.625,890.2018229166666,2.80275917345301,0.4522213211071421,0.7059080723417336,63.7989857481731,0.33046810900865164,64.82283548256741,0.08541666666666667,39,0.32955059166666667,0.0011276699834602342,-6.71021232373375e-07,30.41933333333333,0.02719477073916094,4.208334474917031e-05,66.99133333333333,0.229008490866363,0.7999999999999972,-0.00023784728674242789
S085,11413.0,11442.984375,W,0.8245156249999999,75.95850812199743,-161.55,125.51,287.06,9.030000000000001,77.84301688792867,875.0,901.3753255208334,0.7784191768774427,0.5275391227593141,0.49349501151368175,63.88135319245399,0.29191488647928987,64.73020933072904,0.026041666666666668,24,0.32809849999999996,0.0012376829561725439,5.199740993853619e-08,30.481333333333335,0.016878651868229795,2.0625005594890955e-05,67.82999999999998,0.2561770221285794,0.8199999999999932,-8.52778009108633e-05
S085,11443.0,11472.984375,W,-0.6829114583333332,69.32986546149377,-150.63,126.04,276.67,7.875,25.311122223623975,828.125,832.5602213541666,0.9631198400972171,0.5282965286865153,0.47794681683449075,63.97444495308024,0.31221191303262785,64.73020933072904,0.14479166666666668,104,0.33196370833333333,0.0013916336586654394,1.7112485110808693e-06,30.47000000000001,0.013662601021279173,-6.250001695421333e-06,68.70100000000001,0.6119931916832643,1.8600000000000136,0.0010828127937317724
S085,11473.0,11502.984375,W,0.6793697916666663,74.1174482730557,-157.36,119.74,277.1,10.47,54.447701304308836,906.25,903.1656901041666,0.7291994040270009,0.5016887713153333,0.496208497774765,63.955731072585436,0.32577544075180387,64.73020933072904,0.13333333333333333,99,0.33328746666666664,0.0012947850332090756,-1.1517559547949148e-06,30.468000000000007,0.010770329614268779,-4.513890113359852e-06,69.347,0.21413624946125534,0.6499999999999915,4.9131957772341804e-05
S085,11503.0,11532.984375,W,-0.12868749999999968,76.35035420640831,-203.38,127.96,331.34,11.125,20.72867330606213,890.625,883.1461588541666,0.8913136957136172,0.27856745392972393,0.3855785133154538,63.94196166175413,0.28416048300234586,64.66065264130884,0.13125,82,0.3307893,0.0012300548402408695,-2.9615806644913006e-07,30.48333333333334,0.009428090415820434,-1.111111412519348e-06,68.77999999999999,0.5803734429945371,1.6299999999999955,-0.0010340975027391226
S085,11533.0,11562.984375,W,-0.8194270833333337,72.21016339394406,-154.89,113.79,268.68,9.19,35.198538506877746,843.75,849.7233072916666,0.5651932053510552,0.45669094940001703,0.4614242368893174,63.94103932035379,0.3125016794164094,64.73020933072904,0.10416666666666667,80,0.33088535,0.001310171258843665,3.40846446627182e-07,30.484000000000005,0.010519822558706402,-1.180555875802017e-06,68.28766666666667,0.4783351916340201,1.4299999999999926,0.0008076043857433757
S085,11563.0,11592.984375,W,-0.2553593749999999,68.82503724251335,-149.43,119.06,268.49,9.27,32.9788100656495,875.0,878.2633463541666,1.145030021440486,0.5580806331127749,0.48776257173843185,63.81735276599714,0.35891401980132054,64.91532946846992,0.084375,61,0.3320385,0.0009548010263924156,-3.3359384049314196e-08,30.484000000000005,0.011718930554164907,-6.25000169541935e-07,69.39333333333335,0.12988028676011143,0.4200000000000017,0.00017569449210462477
S085,11593.0,11622.984375,W,0.37490624999999983,73.345418248259,-158.71,119.07,277.78,9.46,29.689141835996192,875.0,886.6536458333334,1.4348704058545574,0.6299724076298898,0.5418178875451501,63.692707124882226,0.37150698150809197,64.83054835492293,0.18333333333333332,107,0.33280709999999997,0.001177931954741024,-5.815652619263412e-07,30.471333333333337,0.01454494948618064,-1.5138892995576119e-05,69.18366666666667,0.13960619215811684,0.4299999999999926,-0.00021718755891589643
S085,11623.0,11652.984375,W,0.2692968749999999,69.06802106947565,-149.53,105.27,254.8,10.344999999999999,22.147379615752094,859.375,851.3102213541666,1.0278901496377042,0.6732028222835639,0.536715148884086,63.63980746505532,0.36215440172438745,64.5600495662759,0.11145833333333334,73,0.33377852499999994,0.0011921160175817657,1.199547851439849e-06,30.44333333333333,0.011925695879998623,-7.638890961070518e-06,68.781,0.2826817999093678,1.0,0.0003492014836158534
S085,11653.0,11682.984375,W,0.42000000000000015,73.16474978601376,-149.22,120.5,269.72,11.375,17.603227563973803,843.75,851.9287109375,0.9611817948277701,0.48174014541901466,0.4706385566883218,63.714582114500345,0.3460264555299836,64.66065264130884,0.22708333333333333,98,0.3364902083333333,0.0014015944366793653,1.6447537013763236e-06,30.436666666666664,0.009428090415820432,-3.055556384428208e-06,69.97766666666666,0.20873720852359423,0.7399999999999949,0.00036809037762868424
S085,11683.0,11712.984375,W,-0.30585937499999977,76.5289492739173,-164.45,124.47,288.91999999999996,8.025,22.19540713305472,875.0,865.0553385416666,0.5023285621732055,0.45690948342277454,0.5027172260575522,63.807653529477655,0.3400628306690679,64.69157595854347,0.004166666666666667,4,0.3396721333333333,0.0012216102688209925,1.1734391203990674e-06,30.444,0.01051982255870611,-2.2916672883211563e-06,70.42533333333334,0.11867977455695244,0.37000000000000455,-2.173611700741013e-05
S085,11713.0,11742.984375,W,-0.7128333333333337,83.28964088181809,-178.12,140.71,318.83000000000004,9.085,20.277387478815836,859.375,863.0533854166666,0.5954690028316615,0.5895787323142027,0.5066131670630627,63.82360053225929,0.33864696256891647,64.73020933072904,0.03333333333333333,25,0.3413587666666667,0.0013414718641187487,2.3321186881832068e-07,30.455333333333336,0.013597385369580469,-2.0833338984737777e-06,70.258,0.25136162528649114,0.7199999999999989,-0.000314930640985958
S085,11743.0,11772.984375,W,0.6413177083333331,83.59615468929515,-222.69,142.78,365.47,12.82,22.808251994235,812.5,818.1477864583334,0.4932882862316247,0.6448379426043588,0.5001291065953759,63.83814049175449,0.3552373221038874,64.82283548256741,0.06458333333333334,43,0.340376675,0.0011596079234127714,4.567381881342749e-07,30.470000000000006,0.012649110640673249,5.972223842291496e-06,70.26999999999998,0.5360534799190597,1.6200000000000045,0.0009051391344235934
S085,11773.0,11802.984375,W,0.27139062500000005,79.38448089239954,-160.85,129.27,290.12,10.785,69.46830424393946,875.0,878.9388020833334,2.2611987414342614,0.5922532303743804,0.5649243665576442,63.70234823502182,0.37136596147802453,65.3299318842443,0.13125,88,0.34111318333333335,0.00253686106893057,-1.175626186964566e-06,30.484666666666673,0.014544949486181468,-5.277779209467076e-06,71.364,0.19530488985173808,0.6799999999999926,-0.00023750006442601566
S085,11803.0,11832.984375,W,0.027958333333333366,76.43199636835631,-186.86,138.6,325.46000000000004,8.205,71.50558221955306,859.375,847.8678385416666,1.3991006535946187,0.6637926330731776,0.6951094038590855,63.71933348439846,0.36894936962869157,64.72248450113763,0.2375,128,0.33823069166666664,0.0013938386431950715,1.0789050235744915e-06,30.49533333333334,0.015434449203721477,5.972223842291472e-06,69.96733333333333,0.7442532424443226,2.2299999999999898,-0.0013121531337220937
S085,11833.0,11862.984375,W,-0.6560572916666668,77.05393968896378,-185.16,118.15,303.31,6.175,15.248132129225251,843.75,849.1048177083334,0.38273135477846015,0.6360140634364061,0.4825863030904996,63.72764472439015,0.3816165814531628,64.91532946846992,0.309375,175,0.3409745,0.0014445919493061073,1.5982647564737365e-06,30.500666666666667,0.013399834161495814,1.1388891978325008e-05,68.85566666666666,0.4795879018027409,1.5300000000000011,0.0006853821303662462
S085,11863.0,11892.984375,W,0.35247395833333356,77.97788218245466,-167.4,125.22,292.62,8.875,25.995644911755615,859.375,868.4977213541666,0.5909464146016588,0.5985188605122557,0.452611059115145,63.664359109217216,0.3233999782987742,64.81512169239521,0.259375,140,0.3445831833333333,0.001722190213958824,2.319313997209735e-06,30.51333333333333,0.011642832797715785,7.708335424353457e-06,70.72133333333335,0.3540219704418854,1.0500000000000114,0.0006130557218575624
S085,11893.0,11922.984375,W,0.13789583333333308,78.48947343599639,-168.47,143.16,311.63,8.33,24.63032337144916,906.25,890.5192057291666,0.5024937810560445,0.5619557552275208,0.3975169785856812,63.64016730568055,0.3077828861184672,64.81512169239521,0.253125,115,0.34697483333333334,0.0017709694818250105,1.5038849565660316e-07,30.519333333333332,0.013399834161494753,-4.861112429772172e-06,70.52466666666666,0.2668924044545952,1.1299999999999955,-0.00046548623738233366
S085,11923.0,11952.984375,W,0.2859218750000003,78.84962530615462,-178.79,127.42,306.21,7.65,29.73067395693797,890.625,871.8180338541666,0.5484194461257632,0.5135649081961846,0.37740979192605306,63.64060838096257,0.31299345193783823,64.389440128021,0.25416666666666665,136,0.34740182500000005,0.0011924983204914805,1.1939879540982934e-06,30.524666666666658,0.012578641509408538,3.472223164122963e-06,69.10333333333332,0.2998036394412552,1.0,-0.0005303473660881524
S085,11953.0,11982.984375,W,-0.0364322916666666,77.32864228159711,-159.69,122.17,281.86,10.954999999999998,50.0772409399074,812.5,828.3528645833334,0.47538247576439846,0.515573440183086,0.4112987559751022,63.656643247081696,0.31540267453002024,64.81512169239521,0.259375,134,0.34850135833333334,0.0011692199878254599,-2.5853631145190695e-07,30.532666666666668,0.015260697523012803,4.444445650077651e-06,69.60066666666667,0.5154669943092595,1.75,0.0009062502458361129
S085,11983.0,12012.984375,N1,0.07182812500000016,79.76159489862613,-155.35,129.2,284.54999999999995,7.5,79.84978558678696,890.625,915.7796223958334,0.39174284498535794,0.49536808529673726,0.3749942129183092,63.64032052010895,0.29442729345825275,64.31174076325411,0.221875,131,0.34930198333333334,0.0011552515020789025,8.882159527495549e-07,30.540666666666667,0.012364824660660675,-2.9166674578632887e-06,70.61933333333333,0.11781152556331449,0.37999999999999545,-2.1458339154278538e-05
S085,12013.0,12042.984375,N1,-0.8730781249999996,82.07277243813198,-174.09,142.36,316.45000000000005,8.81,24.986242111491244,875.0,874.8372395833334,0.5256898576051177,0.5058672678760046,0.3980080065323924,63.65180129061297,0.3231755874434341,64.27285585688566,0.28854166666666664,138,0.35153350833333336,0.0017205214713173135,2.1294352564657304e-06,30.553333333333338,0.009067647005823437,2.569445141450992e-06,69.32566666666666,0.6345532986982948,2.030000000000001,-0.0011391322534538425
S085,12043.0,12072.984375,N1,0.8373593749999995,82.77823787495932,-183.37,125.3,308.67,12.100000000000001,36.70841369158248,843.75,854.052734375,0.34931573737093496,0.4451891276468912,0.33757715167548485,63.626865680384086,0.31471737113239767,64.31174076325411,0.26666666666666666,131,0.3535408666666667,0.0012795604709777693,1.3133870750290274e-06,30.558,0.01599999999999966,6.388890621986252e-06,68.71266666666666,0.3344142474370513,1.1500000000000057,0.0005661807091419038
S085,12073.0,12102.984375,W,-0.01968229166666647,81.89824292639196,-174.05,132.29,306.34000000000003,7.54,69.27486398390549,859.375,896.58203125,0.40205634624459735,0.4394487847007885,0.42695628191498325,63.67126335438716,0.33913791138867605,64.81512169239521,0.33125,149,0.354832625,0.0014264212857269733,1.378576545837817e-06,30.576,0.012806248474865426,1.2430558927560208e-05,69.97733333333332,0.30119687175592663,0.8800000000000097,-3.965278853428635e-05
S085,12103.0,12132.984375,W,-0.2931718750000002,86.63862353003303,-180.85,142.55,323.4,8.88,16.985589667227266,875.0,869.8811848958334,0.515573440183086,0.4175771302672384,0.4943956748732065,63.72091190812066,0.36738117924127656,64.73020933072904,0.3145833333333333,122,0.3569570083333333,0.0014245077014875156,1.6258253108250125e-06,30.577333333333325,0.012092238098144444,9.23611361656708e-06,69.16433333333335,0.6298766193117166,1.7600000000000051,-0.0009974655483576263
S085,12133.0,12162.984375,W,0.025411458333333758,80.71850721951793,-178.22,134.1,312.32,8.879999999999999,27.89506047654687,890.625,880.8430989583334,0.4441447285858018,0.4730485774180303,0.5046614307852564,63.74803088550235,0.3694250772569031,64.88451279003334,0.35208333333333336,149,0.35529165833333326,0.0012151168976401259,6.594244410331076e-07,30.571999999999996,0.01492201952373261,-5.6250015258792e-06,67.13366666666666,0.36563627950312716,1.2900000000000063,-0.0002228125604417766
S085,12163.0,12192.984375,W,-0.22831770833333376,81.95033793295879,-168.31,130.49,298.8,10.350000000000001,21.83707294761054,859.375,861.2223307291666,0.5423383255634807,0.5109733358992424,0.5276213903901379,63.73622922122777,0.3642361767387519,64.93843238021688,0.4166666666666667,181,0.3549287,0.001478605483780802,8.918235926170727e-07,30.564666666666668,0.008844332774280877,4.305556723512474e-06,67.681,0.39394035081468814,1.1199999999999903,0.0006891321313834984
S085,12193.0,12222.984375,W,-0.2527708333333333,81.34770423882071,-179.89,142.3,322.19,9.085,28.669677982817102,828.125,837.060546875,0.5481938462401376,0.47665897247578026,0.4889390707752404,63.77414380497846,0.3654886344721174,64.88451279003334,0.03958333333333333,34,0.3550994999999999,0.0011256938082800354,-2.0571620163742702e-07,30.582666666666665,0.013148721948877068,3.402778700840504e-06,69.42333333333333,0.7347032658760191,2.4000000000000057,0.0013231948033840064
S085,12223.0,12252.984375,W,0.805265625,78.96131460861774,-170.88,126.6,297.48,9.75,59.1565491528321,859.375,870.7682291666666,2.190045889533799,1.154154914952206,1.323711621387839,63.75329250102979,0.3763689831433572,65.00769185258002,0.11041666666666666,68,0.351853875,0.01099619875878516,-8.686338944861906e-06,30.592,0.019561867668161197,-6.875001864963466e-06,70.99500000000002,0.1445164350515182,0.5300000000000011,-8.975696879257447e-05
S085,12253.0,12282.984375,W,-0.14375000000000046,126.69549123949386,-441.52,751.41,1192.9299999999998,5.43,32.774593518288455,765.625,766.8782552083334,9.866395688846504,4.397614049868089,5.645788745211386,64.86221941366594,3.251569016150777,97.76502442080194,0.08020833333333334,44,0.37060166666666666,0.03204336079448527,1.1717809602270393e-05,30.58933333333333,0.02897508508280035,-3.2152786499778634e-05,70.84200000000001,0.24924419083835586,0.980000000000004,0.0001923611632924144
S085,12283.0,12312.984375,W,0.1195572916666662,84.80753869646216,-173.37,130.77,304.14,9.715,75.32903058077594,875.0,894.6940104166666,0.6688562675173361,0.23826403057089607,0.4647643051859727,64.56473778072508,0.31598044171448947,65.43699259593154,0.10520833333333333,55,0.371861375,0.0012515404645376054,1.0388611759063494e-06,30.542666666666666,0.018245242911204957,-2.7569451923136323e-05,71.26033333333334,0.5593775310308983,1.5600000000000023,-0.0009064933014576033
S085,12313.0,12342.984375,W,-0.21335937499999988,87.11101899848367,-178.13,154.42,332.54999999999995,10.58,45.835364903594645,875.0,890.6087239583334,0.9426594140161829,0.3123541326229999,0.45028925888440496,64.42453823162597,0.29881483971133593,66.21933252457322,0.029166666666666667,26,0.37512870833333334,0.0012109285582824036,4.4481630990026223e-07,30.48533333333334,0.019102065042526657,-2.7291674070008304e-05,69.12233333333332,0.9588801917978191,3.1100000000000136,-0.0016634379512364236
S085,12343.0,12372.984375,W,0.0860781250000001,90.35227280728367,-207.13,165.73,372.86,9.925,44.76801447383884,890.625,899.7965494791666,0.8270800535199453,0.6614370075302377,0.8903654592590992,64.30363414175525,0.2737294831661761,65.4217089351845,0.12291666666666666,89,0.3767514083333333,0.0016515892876046814,2.2350967434615624e-06,30.450666666666667,0.015040685563570983,-1.0625002882216266e-05,66.24499999999999,0.41106163365931636,1.269999999999996,0.000215868114113528
S085,12373.0,12402.984375,W,0.24630208333333303,96.91186032976259,-182.54,154.71,337.25,12.45,18.49588635964042,921.875,911.2630208333334,0.6481268080977672,0.42029668753816696,0.2960954677830558,64.15904186754568,0.3106659060576487,64.93843238021688,0.16875,133,0.3797512,0.0013788854774780977,9.923540018321418e-07,30.439333333333334,0.013399834161494236,-9.583335932979379e-06,66.85999999999999,0.190262975904403,0.6399999999999864,-0.0002625000712077013
S085,12403.0,12432.984375,W,-0.9084739583333332,96.84245928049387,-197.95,151.97,349.91999999999996,11.335,43.44000131432399,921.875,944.6207682291666,0.4448587478689787,0.17945410566957407,0.38185857620619473,64.13758567620428,0.2667307522997808,64.78425734698207,0.18541666666666667,115,0.381748,0.0012148803507616237,4.405048938001584e-07,30.436666666666667,0.01299572579307834,9.722224859544295e-06,65.75833333333334,0.424264723439923,1.4499999999999886,-0.0007592710392987822
S085,12433.0,12462.984375,W,0.4313541666666668,98.46671250002238,-190.84,156.52,347.36,12.085,47.04671138792835,921.875,925.634765625,0.47323204425348603,0.33083536680735265,0.37728470681966425,64.12827132168643,0.2780598715610932,65.36818798161687,0.16041666666666668,109,0.38270894166666664,0.00140526578325854,8.847686861894281e-07,30.427333333333333,0.011234866364234906,-8.33333559389511e-06,64.01333333333334,0.2720947547373076,1.0799999999999983,-0.00027263896284694097
S085,12463.0,12492.984375,W,-0.8773177083333332,90.07477338267762,-204.52,151.35,355.87,5.37,24.913818109365735,937.5,935.7666015625,1.8083978363111919,0.28984550482397803,0.3227418881844885,64.03964757876825,0.2806177480047227,64.85368146836385,0.16354166666666667,115,0.383893975,0.0012241856167979524,1.0750061509890774e-06,30.43666666666667,0.01490711984999828,5.277779209466903e-06,63.86633333333332,0.09631487712474923,0.3299999999999983,0.00013878475986999817
S085,12493.0,12522.984375,W,0.8624479166666668,97.51481259354159,-207.37,153.34,360.71000000000004,12.015,38.08276475694791,937.5,948.4293619791666,0.5661906318522254,0.3560473960919935,0.4888058986931543,64.17156193782127,0.3464295893408834,64.56779382943171,0.46145833333333336,197,0.3854525666666666,0.0012074172486022479,6.836395083657527e-07,30.444,0.012806248474865426,6.250001695421331e-07,64.28666666666668,0.3336798199205687,0.960000000000008,-0.0004072917771516332
S085,12523.0,12552.984375,W,1.6300364583333333,112.62064498169251,-275.11,420.78,695.89,7.345000000000001,29.614246630825953,937.5,936.6292317708334,11.338080347758268,3.057180577198086,17.089434600260983,63.97178682245877,1.1972499357102069,71.07038764492565,0.06354166666666666,29,0.3316752083333333,0.06805805206572986,-9.919263389557124e-05,30.457999999999995,0.020396078054371308,1.4722226215882004e-05,63.8,0.1235853281475321,0.38999999999999346,0.0001106250300089592
S085,12553.0,12582.984375,W,-1.0354635416666669,94.93787270112121,-287.23,202.21,489.44000000000005,8.395,89.15169359917314,968.75,944.0673828125,1.5799824052949665,0.5020790110464023,0.5655693649741137,63.673183901739336,0.3881389123528414,65.12296062065974,0.21666666666666667,125,0.28236068333333336,0.007970681978332988,1.257756374174364e-05,30.502666666666663,0.0196525372973127,2.6875007290313758e-05,64.19766666666666,0.5898343458595436,1.5799999999999983,0.0009642016504453263
S085,12583.0,12612.984375,W,-0.4373802083333331,98.24165032089041,-203.16,160.19,363.35,7.25,39.77488881384724,921.875,946.7529296875,1.559855748650247,0.32052034245981265,0.8526689104414054,63.52099362702112,0.30282333013834317,64.57553716385176,0.11354166666666667,83,0.2923856666666666,0.0014436478583397328,5.527436395246467e-07,30.543999999999997,0.013808210118138358,7.291668644658222e-06,63.97833333333333,0.4030143366625501,1.1499999999999986,-0.000681284907032581
S085,12613.0,12642.984375,W,0.36493750000000047,98.18430035841317,-195.81,164.46,360.27,7.300000000000001,46.754384451184606,937.5,958.8948567708334,0.6350545416209016,0.49994682877004254,0.34894278572329496,63.451520535784525,0.3931179173171673,64.41273166075166,0.21666666666666667,134,0.2876241333333333,0.0025301436584159033,-1.9621337787906262e-06,30.568666666666665,0.01543444920371997,1.8611116159699083e-05,62.74433333333333,0.6453923010249054,1.7199999999999989,-0.0010675350118096276
S085,12643.0,12672.984375,W,-0.22136458333333284,93.33214810954519,-197.92,156.65,354.57,5.24,24.545215214134426,968.75,961.4420572916666,0.2844265063245689,0.2870750936166354,0.48174014541901466,63.238383695980026,0.3002679692241753,64.28841264178172,0.08958333333333333,74,0.28658859166666667,0.0014210631612507226,-1.1337101599691208e-06,30.59066666666666,0.015040685563570983,5.7638904524441185e-06,62.757,0.132467606103028,0.45000000000000284,1.0243058334163241e-05
S085,12673.0,12702.984375,W,-0.6932395833333339,98.1568449930226,-199.08,171.45,370.53,7.225,33.25506797288923,937.5,957.7311197916666,0.4936401073206629,0.20684625513624577,0.47375109938306914,63.21267075556533,0.2560226848616675,64.28841264178172,0.18541666666666667,96,0.2857022916666667,0.001413346704314706,1.4326716125953886e-06,30.604000000000003,0.012806248474865424,5.486112599314281e-06,62.73233333333333,0.15846520823897733,0.5399999999999991,-3.94097329127971e-05
S085,12703.0,12732.984375,W,0.9109531250000008,97.00920040172034,-195.64,153.77,349.40999999999997,10.754999999999999,45.92864140726973,1015.625,996.9807942708334,0.486616676584923,0.3108009366495253,0.6715761609308029,63.20164975861505,0.30517938334717115,64.52906321960671,0.11354166666666667,81,0.28954599166666667,0.0018928362074579705,2.5642470063603994e-06,30.63333333333333,0.01468181036369681,1.534722638542378e-05,61.91166666666666,0.17513962683781548,0.5900000000000034,-0.00025531256925796845
S085,12733.0,12762.984375,W,-0.12978645833333313,96.46084880290717,-187.31,151.67,338.98,10.489999999999998,38.749967048658355,953.125,972.8352864583334,0.5451450813519483,0.2810396589995006,0.5163935770213345,63.116890435800116,0.29723736059989153,64.10148204214939,0.08854166666666667,67,0.29395526666666666,0.0016105540751210137,1.807204483291157e-06,30.656000000000002,0.014742229591665183,1.201389214786671e-05,61.56866666666666,0.08991601019222821,0.37000000000000455,-0.00011618058707155699
S085,12763.0,12792.984375,W,-1.0806354166666665,92.03335086007542,-179.7,146.44,326.14,9.094999999999999,48.453526597154564,968.75,980.5745442708334,0.41402810391727435,0.34977516339865466,0.5041322302288911,63.15997949273849,0.34355806426187857,64.13267497929586,0.13958333333333334,110,0.301791875,0.003236034171540066,5.2144912148684945e-06,30.68866666666667,0.01359738536958047,1.3750003729926933e-05,61.40933333333334,0.13944971216256447,0.4799999999999969,-0.0001094444741331584
S085,12793.0,12822.984375,W,0.8766250000000002,93.31325911705622,-182.46,149.86,332.32000000000005,9.875,49.929502909668685,953.125,974.2350260416666,0.4321987852025449,0.05581428468591173,0.48858053327982687,63.15347756778227,0.2299009111654434,64.13267497929586,0.03229166666666667,28,0.3089451166666667,0.0023467223532100175,3.4102205431370843e-06,30.706666666666663,0.01273664878302826,8.958335763437244e-06,61.00566666666667,0.18183661775218843,0.5400000000000063,-0.00010572919534754591
S085,12823.0,12852.984375,W,0.08821354166666732,94.02184113437765,-220.35,192.49,412.84000000000003,11.08,59.83046129323762,921.875,944.580078125,1.0671421262926197,0.5600167020698777,0.9838490658505501,63.23444352589616,0.3622066218551025,65.00769185258002,0.17916666666666667,110,0.3192159333333333,0.002458816381016601,3.516260068429929e-06,30.706666666666663,0.013743685418725242,9.23611361656708e-06,61.64766666666667,0.417106567784408,1.1400000000000006,0.0006854515748295289
S085,12853.0,12882.984375,W,0.01190624999999971,91.51832404697002,-181.47,150.75,332.22,8.03,52.706738047023514,984.375,973.5595703125,1.30951669877669,0.08507936450096985,1.5121294168370276,63.2228390484864,0.22059989993360676,64.1404708432983,0.11145833333333334,54,0.32871789166666665,0.002528340660709554,2.49252085843122e-06,30.709333333333333,0.01412641340027776,1.1041669661911022e-05,62.717666666666666,0.17471278017236067,0.5700000000000003,0.00015781254280939247
S085,12883.0,12912.984375,W,-0.8368072916666667,87.62400884938936,-177.43,153.55,330.98,9.175,52.9238989786218,937.5,957.470703125,0.47391941232133544,0.10172129679778086,0.3766111223795708,63.278114315206814,0.2582770701205792,64.45153217728807,0.259375,144,0.33371438333333336,0.00270240359119844,3.192618487580969e-06,30.729999999999997,0.017888543819997937,-1.3888892656491895e-07,62.55,0.2548855952514118,0.7100000000000009,-0.0003490973169209303
S085,12913.0,12942.984375,W,0.4590729166666666,85.8093263468421,-203.88,141.65,345.53,8.68,59.10861171411437,953.125,977.392578125,0.5288507915492064,0.27794938275700487,0.7009913614937697,63.35753969448838,0.30324169897277964,64.34283176858165,0.24166666666666667,135,0.33956531666666667,0.0015812356454333104,1.1607155926420368e-06,30.743333333333336,0.010749676997731172,6.944446328245926e-06,62.181999999999995,0.08272041263597997,0.269999999999996,1.7361115820614593e-05
S085,12943.0,12972.984375,W,0.5333177083333336,84.11571086643522,-194.74,141.36,336.1,9.105,48.466540419262394,937.5,943.212890625,0.5013772265110262,0.4986690184185855,0.548637042284484,63.18990480247442,0.39855704847203244,64.00781202322104,0.11875,82,0.34341936666666667,0.0014781531716601302,1.6556219768939905e-06,30.75466666666667,0.016069294390924922,1.31250035603848e-05,62.24666666666666,0.3576621621337967,0.9299999999999997,0.0005684029319669411
S085,12973.0,13002.984375,W,-0.9392760416666667,90.08086178046534,-181.38,152.77,334.15,4.04,56.0274005302035,937.5,967.6595052083334,0.46586496426599366,0.4739194123213355,0.4930726718468813,63.13300911567199,0.4110879879173983,64.22616289332565,0.22395833333333334,143,0.342330425,0.0019118212244807393,-2.6964315040233155e-06,30.766666666666666,0.01374368541872524,8.958335763437244e-06,62.748,0.16458837545019242,0.5600000000000023,0.00022090283770150878
S085,13003.0,13032.984375,W,0.844583333333333,90.03914361805215,-179.71,151.59,331.3,11.75,46.54533527843011,953.125,961.4664713541666,0.5575826732422735,0.49994682877004254,0.8705086864953668,63.1844027482682,0.4425298611078536,64.22616289332565,0.275,159,0.3415082416666667,0.0012242456452569307,6.118953482789068e-07,30.778666666666663,0.015216949614017445,1.9375005255806132e-05,62.870000000000005,0.36946808612743104,1.0200000000000031,-0.0006286112816328347
S085,13033.0,13062.984375,W,0.38209895833333357,96.31471558732493,-235.23,321.97,557.2,3.8200000000000003,25.039620263494328,968.75,969.5638020833334,10.029947291233915,1.2195172086617811,10.028112340284935,63.533775937432424,1.061122895238542,84.26743143112884,0.03854166666666667,17,0.34384636666666674,0.0073117018332867585,-4.953498305527973e-06,30.796,0.014742229591663674,-6.736112938398548e-06,62.31833333333334,0.33915663375824195,1.0700000000000003,-0.00046864596046168616
S085,13063.0,13092.984375,W,-0.4314791666666667,79.69646804830542,-160.5,121.96,282.46,11.96,40.24614493216552,984.375,994.1324869791666,1.4123463534920258,0.38778971024899567,0.5681802320053616,63.70593007969003,0.33275017903160314,64.4980619863884,0.06354166666666666,41,0.338177275,0.001445853432881419,1.6426117737119557e-06,30.775333333333332,0.01359738536958047,-1.0555558418933806e-05,61.460666666666675,0.21818850158113845,0.7700000000000031,-0.0003702778782220816
S085,13093.0,13122.984375,W,0.06918749999999936,80.22059485520647,-186.69,204.59,391.28,3.12,38.0319927334255,984.375,1001.8798828125,1.0087244205417167,0.5155134559484252,0.5188869882712633,63.66274166102992,0.3765402160437138,66.30987860040162,0.07291666666666667,48,0.3018879,0.04682686096487072,-7.495657805896756e-05,30.769999999999996,0.015491933384829336,-1.1944447684582993e-05,60.66766666666667,0.1204902024601536,0.4799999999999969,-2.5347229098094345e-06
S085,13123.0,13152.984375,W,-0.5248645833333333,77.0267007776524,-159.71,122.81,282.52,7.885,51.31492647625684,968.75,974.6256510416666,0.7544313531837517,0.2221950938302244,0.4337025170135503,63.580262795971024,0.26452686428550765,64.4980619863884,0.1,74,0.209814125,0.0017945157358021868,4.798588541283801e-07,30.77466666666667,0.01687865186822919,1.215278107443037e-05,60.85766666666667,0.14256421555059123,0.4299999999999997,0.00018864588450680475
S085,13153.0,13182.984375,W,0.1369218749999997,77.70701728859324,-156.82,145.36,302.18,5.98,57.95627620875652,1015.625,1009.9609375,1.0264196638748153,0.15612494995995993,0.5434416031568311,63.50554415124986,0.2940868131287148,64.41273166075166,0.109375,74,0.20978207499999998,0.00119821822694157,-1.2195634818694348e-06,30.784000000000006,0.013808210118138358,-2.2916672883211563e-06,61.15866666666666,0.10294766739573145,0.3200000000000003,-0.00012229169984041244
S085,13183.0,13212.984375,W,0.19111458333333325,78.79743637702332,-154.15,123.21,277.36,6.73,51.81496142185448,968.75,975.1383463541666,0.6231604873991575,0.11110243021644486,0.49972214501883166,63.50800187469839,0.2856826035531666,64.41273166075166,0.058333333333333334,46,0.20873576666666663,0.001605012205214923,2.3730075881639424e-06,30.794666666666668,0.015216949614017445,1.31250035603848e-05,61.14733333333333,0.11304669634958575,0.3200000000000003,6.694446260429213e-05
S085,13213.0,13242.984375,W,-0.13029687499999992,82.49668203407101,-176.63,156.34,332.97,7.1850000000000005,58.295135253059485,1015.625,1001.4485677083334,1.0699473474843932,0.30752815758615226,0.5342592467223505,63.486346690682936,0.32344582814665834,64.7533782902483,0.13020833333333334,88,0.21303844166666666,0.0018873416348391303,2.6938946109740234e-06,30.816666666666663,0.013984117975602004,5.555557062596831e-07,61.15666666666666,0.29048618249793273,0.9600000000000009,-0.00037854176935269405
S085,13243.0,13272.984375,W,-0.17691145833333313,81.55091945816017,-165.49,124.67,290.16,9.07,58.822071697835305,968.75,980.615234375,0.8085098336085138,0.40232478717449166,0.5633779799245697,63.45036565708495,0.3623621331581516,64.69930447848725,0.12395833333333334,94,0.21376436666666665,0.0018093962894352978,-2.155552668064418e-06,30.827999999999996,0.019561867668162383,3.541667627405421e-06,60.215999999999994,0.13273030299571176,0.4200000000000017,-0.0001522917079784375
S085,13273.0,13302.984375,W,0.39052083333333365,84.16403635869104,-197.44,182.95,380.39,8.504999999999999,70.04385407054323,960.9375,961.1979166666666,3.7083046581288333,1.3380110005153172,1.7196900838159765,63.54094990715468,0.5541298552316629,67.7864293203293,0.09479166666666666,63,0.21388181666666664,0.0021836739911722676,-8.504668105649963e-07,30.834666666666667,0.016069294390926348,4.236112260229868e-06,60.32533333333333,0.43955836421976513,1.6099999999999994,0.00047097234998164924
S085,13303.0,13332.984375,W,0.056567708333333105,84.12215564062552,-171.27,143.98,315.25,6.295,34.91516716407104,921.875,926.6438802083334,1.340083418190201,0.4330127018922193,0.6701860230977333,63.538109827140126,0.39955132454558273,64.69157595854347,0.16354166666666667,101,0.2149070333333333,0.001090774991564353,7.354181682449444e-07,30.842666666666666,0.01671991493864712,5.486112599315145e-06,62.40866666666667,0.5068447055613344,1.5,0.0008935419090554228
S085,13333.0,13362.984375,W,-1.046828125,82.44875130568256,-169.14,131.47,300.61,3.635,72.67619671580815,953.125,966.1295572916666,0.7354019120332924,0.496208497774765,0.5100381249366452,63.45267158007143,0.3914856552440362,64.68384651518491,0.13854166666666667,102,0.216252125,0.001044569341582924,5.91851072008207e-07,30.840666666666664,0.01236482466066231,3.4722231641237034e-06,63.37733333333334,0.16733067726975642,0.5499999999999972,6.548612887535919e-05
S085,13363.0,13392.984375,W,0.8478020833333327,90.22180989131728,-184.54,145.28,329.82,7.585,46.067765377649806,937.5,949.1536458333334,0.7505090864798966,0.45371608956544135,0.28236468920233865,63.49594316121725,0.3544273326587698,65.00769185258002,0.11145833333333334,79,0.21388200833333332,0.002946233715824982,-4.2325304450223624e-06,30.846000000000004,0.012000000000001164,-4.166667796948902e-07,63.31600000000001,0.22792688886278137,0.6600000000000037,0.00019854172052455557
S085,13393.0,13422.984375,W,0.014447916666666612,82.61048465733757,-175.59,143.31,318.9,5.4,50.89908264068781,921.875,941.2190755208334,2.2588538664399156,0.6293589317158814,0.6996084904648853,63.35895777856748,0.3472667759872352,64.42049363362563,0.22916666666666666,138,0.212739375,0.005402411162407793,9.126685852508093e-06,30.838666666666665,0.01765093639316606,1.3819448193210282e-05,62.85466666666666,0.3648080164811192,1.2899999999999991,0.0003236111988962673
S085,13423.0,13452.984375,W,-0.371609375,97.78290884905618,-263.03,277.54,540.5699999999999,3.79,28.67170494923069,906.25,903.1005859375,1.3437156810863014,0.47200145472645405,0.7680439395344224,63.34210297169297,0.4388330625406477,65.30696746902278,0.11354166666666667,75,0.22424858333333336,0.002619981700264758,-1.1278622851188903e-06,30.854000000000003,0.014966629547096587,-1.069444734549991e-05,64.16133333333333,0.2097098524681721,0.7899999999999991,0.000372569545510403
S085,13453.0,13482.984375,W,0.29169270833333366,98.52142930336774,-197.48,227.24,424.72,11.015,52.73949617864259,953.125,966.6178385416666,2.0536383701994745,0.1978618345097294,1.342313508669102,63.325504426814014,0.3495078772019842,64.389440128021,0.18333333333333332,86,0.22315962500000003,0.002333125164746843,3.756726062479935e-06,30.84,0.014375905768566476,-5.0694458196199565e-06,64.7,0.4285790475513245,1.3900000000000006,-0.0004765973515075285
S085,13483.0,13512.984375,W,0.19930729166666636,96.02922529696227,-221.97,157.78,379.75,9.455,58.496487176923985,906.25,934.7249348958334,1.4635142346183572,0.347109530323883,1.0229909171965637,63.15888881401027,0.39074345312031034,64.89992295835181,0.17083333333333334,100,0.22756878333333333,0.0012819262796233254,-1.0551986369353982e-06,30.829999999999995,0.011547005383793295,1.0555558418935028e-05,62.794333333333334,0.4315297080026928,1.4500000000000028,-0.0005407987578121633
S085,13513.0,13542.984375,W,0.3780104166666665,93.86559322987164,-190.86,161.89,352.75,10.600000000000001,68.41640987417745,953.125,972.5179036458334,0.9788652018196037,0.4388619673529353,0.6307926010627863,63.14771914459649,0.3912375687009883,64.50581369148055,0.125,94,0.23174350833333335,0.0019721668413018555,3.1449667819462748e-06,30.839999999999996,0.014375905768566474,-4.930556893055138e-06,62.66466666666667,0.13529556123128667,0.4200000000000017,-7.145835271765175e-05
S085,13543.0,13572.984375,W,-0.6853906250000001,97.41381799844882,-335.55,180.82,516.37,12.0,55.01682426351482,953.125,970.1253255208334,1.6896128747931187,0.3942071860780262,0.9446854267720847,63.42462556457152,0.37941445311654265,64.7533782902483,0.11770833333333333,84,0.24034878333333332,0.00425049600867031,7.414084910504807e-06,30.848000000000003,0.01661324772583722,2.3263895199625922e-05,62.919333333333334,0.37373728146327,1.1099999999999994,-0.00024381951058471908
S085,13573.0,13602.984375,W,-0.11863020833333345,93.97075993221644,-202.99,168.88,371.87,10.149999999999999,45.61881451649588,921.875,941.0074869791666,1.7498759876694754,0.4724977494802371,0.9365915737618328,63.45106355650249,0.4472511024937167,65.13063795173512,0.140625,89,0.2540146833333334,0.003079940664967789,5.244965832510264e-06,30.863333333333337,0.01074967699773117,8.055557740765275e-06,62.866333333333344,0.35461230786436154,1.2199999999999989,0.0006008682185514914
S085,13603.0,13632.984375,W,0.5200312499999998,85.27160946180948,-177.0,134.02,311.02,8.43,62.01388885091753,921.875,954.4596354166666,1.3079579975151683,0.49975579974123363,0.6588605483880654,63.33793493954733,0.39231907975140173,64.389440128021,0.24270833333333333,149,0.26383698333333333,0.003176038940208738,5.4344190089027325e-06,30.87,0.012649110640673247,2.7777785312983685e-07,63.62133333333333,0.20832239971309358,0.5999999999999943,0.0003098611951663393
S085,13633.0,13662.984375,W,-0.7390052083333334,93.44016451050358,-186.33,146.49,332.82000000000005,4.75,48.092811355536114,953.125,945.068359375,1.1788606603823975,0.4986690184185855,0.5823568836465794,63.455941401632764,0.36337652540602594,64.68384651518491,0.0875,62,0.27685165000000006,0.004210475645438809,7.356675172709199e-06,30.886,0.01083205120618105,9.722224859544297e-07,63.37666666666667,0.12801909579781096,0.37000000000000455,9.118058028987165e-05
S085,13663.0,13692.984375,W,0.87346875,102.67721971694162,-239.76,274.05,513.81,10.325,58.837375102196376,921.875,949.5768229166666,2.430882889664553,0.33767356648100244,0.8695040692192815,63.437853249013365,0.3929378534126387,65.95452979136459,0.11770833333333333,78,0.29365633333333335,0.005707885211607614,9.638669715350942e-06,30.874,0.014966629547095447,-6.3888906219862535e-06,62.463666666666676,0.3810379100416249,1.25,-0.0006580210118329579
S085,13693.0,13722.984375,W,-0.4080104166666664,97.78900228244342,-215.51,173.82,389.33,9.855,48.31746860455782,937.5,943.8802083333334,1.8964696734253943,0.16676754759411544,0.882624887881785,63.45814805482443,0.3635869249348573,65.00769185258002,0.14270833333333333,94,0.31151809166666666,0.004576592400458067,7.909381268820865e-06,30.875999999999998,0.010519822558706109,-1.8750005086263997e-06,62.36299999999999,0.20816900185506348,0.6000000000000014,-0.00024052089857880163
S085,13723.0,13752.984375,W,0.5062239583333334,97.07285391256967,-204.99,166.52,371.51,6.925000000000001,48.12158085290375,921.875,954.4921875,2.074297069692124,0.3992166265707825,0.8847368713901451,63.44657421412808,0.4482973244820267,65.68104749469211,0.11145833333333334,78,0.32069990833333334,0.002052505452675796,2.941157264853851e-06,30.867333333333338,0.012364824660660675,-8.194446667330191e-06,62.456,0.10922759114192183,0.3500000000000014,-3.56944541271848e-05
S085,13753.0,13782.984375,W,-0.41216666666666685,91.47431943864841,-232.82,174.07,406.89,3.645,52.628874562870074,921.875,924.169921875,6.014519108305058,0.6043246919771964,1.9937116310310108,63.593901422863794,0.5439762425110599,66.03786792439622,0.10104166666666667,62,0.3220345,0.0013213159917294503,7.555709514895092e-07,30.86733333333334,0.012364824660660675,1.944444971908859e-06,62.519666666666666,0.345325772117995,1.1300000000000026,0.00046072929164748714
S085,13783.0,13812.984375,W,-0.4679635416666668,91.57860737087157,-198.06,177.98,376.03999999999996,2.8499999999999996,28.630217717519454,953.125,964.3147786458334,2.013209146539011,0.46308966726818207,1.037022982708998,63.56564093151838,0.39911522806671157,65.06150935845248,0.25729166666666664,111,0.32397772499999994,0.0022225466547877767,6.950305704838669e-09,30.877333333333333,0.010934146311237583,3.1250008477106665e-06,63.636,0.17768136274428623,0.6700000000000017,0.0002965278582161064
S085,13813.0,13842.984375,W,0.28743749999999946,96.3257236871349,-269.94,335.38,605.3199999999999,4.74,38.47072361224267,1000.0,1002.2786458333334,3.0564422442945545,0.6838920480114777,1.8587767478274226,63.08154197886427,0.5592956005411981,65.76473218982953,0.096875,62,0.31350380000000005,0.0018163167014592944,-1.3089187578447058e-06,30.879999999999995,0.023523038352503085,2.8472229945811135e-06,63.51466666666666,0.35238930492031406,1.2000000000000028,-0.0005340973671054049
S085,13843.0,13872.984375,W,0.6173697916666667,84.68962459947944,-263.69,192.54,456.23,9.98,58.50433931169697,953.125,961.4827473958334,0.5728210147424373,0.4500566611704452,0.33538431521001233,62.952974865307304,0.35065026449075765,63.85922016435841,0.21458333333333332,115,0.31555371666666665,0.001244587583521366,-2.6469972458217304e-07,30.904000000000003,0.016451950239003737,1.3958337119774312e-05,62.30833333333333,0.15498566241932,0.5999999999999943,-0.000261562570953388
S085,13873.0,13902.984375,W,-1.260479166666667,81.14157028882956,-175.3,134.91,310.21000000000004,7.335,41.61276509781215,937.5,950.927734375,0.39244160924482335,0.3010326555744779,0.49899965034222893,62.849795437482314,0.32927465733395955,63.85922016435841,0.36875,174,0.31543621666666666,0.0011567955609018473,-7.91905596762573e-08,30.93066666666667,0.01412641340027776,1.2291670000995287e-05,62.389333333333326,0.1875799088981078,0.5600000000000023,0.0002759722970845004
S085,13903.0,13932.984375,W,0.13160416666666622,83.90667985569335,-174.69,143.92,318.61,7.78,52.750868866982835,937.5,962.6220703125,0.5183942890203257,0.3587933094260383,0.5826037103669468,62.90127404545976,0.33312678963299214,63.41135544995076,0.35833333333333334,181,0.3169846166666666,0.0011764132081836345,5.750084025087954e-07,30.942,0.013266499161421317,-8.750002373589868e-06,62.571000000000005,0.04995664787259713,0.17999999999999972,4.559029014493593e-05
S085,13933.0,13962.984375,W,-0.07001041666666623,79.28745586800427,-171.69,137.41,309.1,7.58,53.06129375714742,953.125,968.75,0.5478166496166599,0.20832291640623696,0.5016465942828233,62.910378213981026,0.3194077444213827,64.47480127925948,0.37916666666666665,167,0.31705931666666665,0.0013228577460894714,1.5212022355691954e-06,30.944666666666663,0.011469767022723258,8.33333559389511e-06,62.196,0.2382659578426309,0.769999999999996,-0.00037645843545421927
S085,13963.0,13992.984375,W,0.17475520833333366,82.40684866197961,-185.19,152.37,337.56,9.38,44.70239066630052,937.5,943.9453125,1.0099198735749617,0.48506223648506064,0.9159555717255069,62.93536968254102,0.36894162397006713,64.47480127925948,0.259375,143,0.3175289333333333,0.0022005103375252713,-2.4792845267156506e-06,30.957333333333334,0.01412641340027776,-2.569445141450992e-06,61.949,0.1661595618675017,0.5200000000000031,0.0001267708677221315
S085,13993.0,14022.984375,W,0.14886979166666628,81.8828721535099,-255.88,139.58,395.46000000000004,8.629999999999999,52.89126569997524,953.125,964.16015625,1.3486872314454115,0.49465458627432357,1.3635874228380893,62.81691542067438,0.4549857490532436,64.33506042586733,0.115625,75,0.31620505833333323,0.0014543344829384696,1.3856281970562672e-06,30.97066666666667,0.015040685563571292,1.0902780735345943e-05,62.309666666666665,0.14022561186253463,0.5,-0.00010531252856785132
S085,14023.0,14052.984375,W,0.5437760416666664,77.82677501095682,-175.86,145.67,321.53,8.165,36.240148265236854,953.125,950.4231770833334,0.6495315820202022,0.48330527037784315,0.48239852128021005,62.826788705886045,0.42675626058738303,64.41273166075166,0.04375,24,0.31757183333333333,0.0012104130516297216,7.997901475125237e-07,30.971333333333337,0.012578641509408536,3.0555563844282075e-06,62.02400000000001,0.3778412365002,1.0300000000000011,-0.000594027938918169
S085,14053.0,14082.984375,W,-0.02432291666666681,76.31478506447746,-178.2,132.92,311.12,5.055,48.12822975121036,953.125,954.1748046875,0.9079790736927195,0.499995659703384,0.8589999181460962,62.78166206169575,0.39316082930602636,63.82789358893179,0.3302083333333333,178,0.31771052499999997,0.001469973060765068,-1.4936998409559136e-06,30.964000000000006,0.018726095873583787,1.736111582061482e-06,61.39433333333333,0.23040085840889485,0.6899999999999977,0.00027003479547384814
S085,14083.0,14112.984375,W,0.1747239583333333,96.0421924025389,-260.41,383.37,643.78,8.975000000000001,47.81198469450825,953.125,962.8336588541666,10.222685276913955,2.0569833629749064,4.2202204227583495,63.15597926146437,0.8776105013896912,70.04284403134984,0.11666666666666667,53,0.3165894166666667,0.003392872130372084,2.55757491253661e-06,30.943333333333335,0.027968235951203447,-4.208334474917031e-05,61.861,0.23315731456107816,0.8599999999999994,0.0003976042745237293
S085,14113.0,14142.984375,W,-0.16192708333333344,105.42291548130329,-208.44,163.36,371.8,10.219999999999999,47.612460225735944,921.875,947.8841145833334,1.765135133617411,0.09636964965693294,0.8620312484265804,63.32815989245486,0.35852424697862767,64.8382603097893,0.06770833333333333,48,0.326699975,0.0019983627025747055,2.380849387166183e-06,30.90266666666667,0.012092238098144444,-1.5069448532293659e-05,62.66,0.06314005596027474,0.259999999999998,3.166667525680234e-05
S085,14143.0,14172.984375,W,0.43706770833333325,111.0192571227116,-308.21,412.94,721.15,7.640000000000001,47.34777452340644,921.875,947.55859375,7.830994151513694,1.0003119088217214,6.074871040583678,63.1712031745355,1.2055107416458124,76.48529270389177,0.03854166666666667,18,0.3263370583333333,0.0019157755579043987,-1.3171711472361006e-06,30.90066666666667,0.019821424996424253,1.944444971908859e-05,62.748666666666665,0.09580303868991909,0.30000000000000426,-1.4166670509621786e-05
S085,14173.0,14202.984375,W,-0.0683749999999994,101.23748456941583,-197.03,166.96,363.99,11.05,58.86867648157443,906.25,918.6848958333334,0.6236095644623235,0.2273030282830976,0.581783655856902,63.07726483816109,0.34507564845123345,64.1404708432983,0.32395833333333335,161,0.3292943166666667,0.0012430254421057557,7.788739091997325e-07,30.88733333333333,0.014360439485691705,-9.722224859544295e-06,63.158666666666676,0.3609961526418558,1.1299999999999955,0.0006092362763770278
S085,14203.0,14232.984375,W,-0.9906249999999999,107.97247476992786,-299.82,201.6,501.41999999999996,5.85,19.77575231150724,906.25,907.861328125,2.5730136621393123,1.050049085327549,1.6966697236179074,63.06835731136039,0.4666076652192131,68.09552114493287,0.026041666666666668,16,0.3279173166666666,0.00308040268467001,-4.201729872431057e-06,30.894000000000005,0.022150996967781063,3.055556384428207e-05,64.58666666666666,0.6070493298644591,1.730000000000004,0.001075555847318752
S085,14233.0,14262.984375,W,0.03703125000000031,93.31656730273403,-202.75,210.16,412.90999999999997,10.265,41.21430249208715,859.375,867.626953125,17.63077513244478,1.0195974661872966,9.518984081440012,63.552741478701755,0.7906277303308197,67.07458535093602,0.14583333333333334,74,0.3240630666666667,0.0024604347980703638,-1.7883155892783253e-06,30.887333333333334,0.022350739485653137,-3.1527786330236504e-05,65.89933333333333,0.4262701282311746,1.3799999999999955,0.0006824307406767412
S085,14263.0,14292.984375,W,0.14912499999999998,88.1547728138379,-230.2,173.39,403.59,9.989999999999998,56.87932313597561,906.25,899.2268880208334,2.45861028630618,1.3953030709212326,1.3251310207757656,63.954209552141734,0.4468842811558013,65.80273550544841,0.190625,121,0.32132989166666664,0.0026940968734000454,3.198843966700297e-06,30.881999999999994,0.013266499161421317,1.0555558418933806e-05,66.50133333333333,0.19982881562866786,0.7000000000000028,0.00010840280718392297
S085,14293.0,14322.984375,W,-0.4521822916666668,91.91180950927281,-283.28,187.44,470.71999999999997,8.93,102.67444662861386,906.25,958.6263020833334,3.007141384364153,0.5378380316265194,0.5894765804414022,64.52000027566096,0.3412322210904934,65.95452979136459,0.14270833333333333,83,0.3195040833333333,0.0014623566059807592,1.4973463263200774e-06,30.875999999999998,0.01171893055416438,3.263889774275585e-06,67.113,0.1359693592934338,0.6700000000000017,-4.975695794188401e-05
S085,14323.0,14352.984375,W,0.6483229166666663,83.9731261699235,-168.89,136.4,305.28999999999996,10.635,39.46924918758374,921.875,935.6201171875,0.5896643053938024,0.46181325703686765,0.5184068476806823,64.67395431283848,0.3018143041929255,65.73431371817918,0.06979166666666667,53,0.3203581916666666,0.0015414483356886218,7.096714164690222e-07,30.859333333333336,0.012364824660660956,-1.1944447684583004e-05,65.55166666666668,0.5097063424713842,1.6300000000000097,-0.0009153127482944746
S085,14353.0,14382.984375,W,0.10476562499999988,88.4628682063793,-189.05,207.25,396.3,7.755000000000001,54.43122762814723,937.5,957.373046875,0.9453743379682404,0.3932978003017843,0.5902629695854965,64.71231095372507,0.3081169070253518,65.63535632568775,0.14583333333333334,86,0.3235507166666667,0.0013927112118893208,1.186428273228157e-06,30.82866666666666,0.012578641509409327,-9.444447006414915e-06,63.922000000000004,0.472993305097088,1.5800000000000054,-0.0008415974505201424
S085,14383.0,14412.984375,W,-0.14268750000000005,83.39721044224547,-169.76,169.23,338.99,5.175000000000001,54.321087897567594,968.75,960.8154296875,3.952197958933386,0.6052397080220916,2.033568121690433,64.99444462206333,0.4136745132071538,68.30812543175226,0.1,60,0.32320881666666673,0.006726628247722297,2.9034309091338196e-06,30.825333333333326,0.01334998959633401,-2.2916672883210326e-06,63.31733333333333,0.16078833567422998,0.45000000000000284,-0.00014243059419232707
S085,14413.0,14442.984375,W,0.22547916666666662,71.13268994441819,-190.6,215.88,406.48,4.73,42.20437548283156,921.875,910.15625,2.92381545785592,1.0108133886119743,2.099764371701422,65.58951666460511,0.4662478276849629,68.33739825307956,0.15729166666666666,89,0.32916628333333336,0.004058724141039345,2.9824378750102685e-06,30.79866666666667,0.018390818965511237,7.569446497788058e-06,63.537000000000006,0.38360700375948875,1.4599999999999937,0.0005838543250472871
S085,14443.0,14472.984375,W,-1.1450156249999996,115.7283836070107,-410.25,675.0,1085.25,7.77,53.25810269897897,984.375,971.9482421875,9.603742759986858,0.9731731460650886,5.908676750127731,64.99043444166769,0.6104078554217033,68.62215385719105,0.16041666666666668,52,0.324767625,0.005121977697567126,1.0133728877422134e-06,30.807333333333336,0.014360439485691705,1.111111412519348e-06,65.89233333333333,0.7518895456706987,2.219999999999999,0.001289757294313503
S085,14473.0,14502.984375,W,0.8958593750000019,149.63318249483405,-1594.49,590.95,2185.44,9.74,33.804284539870025,937.5,946.1263020833334,2.2530496308090706,1.109147081438656,1.8385694048899062,65.54498293300728,0.4318128203102474,68.0808343074613,0.11458333333333333,63,0.32962549999999996,0.002982679622978861,3.515033505597196e-06,30.784666666666666,0.014544949486180642,-7.083335254810844e-06,66.12533333333333,0.4253134791604372,1.6400000000000006,-0.0006958335220902565
S085,14503.0,14532.984375,W,0.20545833333333335,31.302888757774376,-76.5,64.4,140.9,4.91,51.593223563443615,937.5,960.7503255208334,0.3799671038392666,0.4405535797121869,0.3476343040826092,65.5322748945483,0.30975336213492954,66.01514977639603,0.28229166666666666,179,0.33516635833333336,0.0020072844500129755,2.734849049166956e-06,30.779333333333334,0.01611072796479242,-1.4444448362751526e-05,63.434000000000005,0.8938776948404822,2.750000000000007,-0.0015793754284330057
S085,14533.0,14562.984375,W,-0.13820312500000012,54.74178216247005,-137.11,114.93,252.04000000000002,4.31,53.220161900607565,921.875,944.2301432291666,0.5062071312439427,0.532142836336156,0.7055329139794496,65.63532727835272,0.32220034687744176,66.73080248281148,0.057291666666666664,37,0.33913825000000003,0.001455129222497668,5.997375758836709e-07,30.766666666666662,0.01273664878302826,-9.652780396261837e-06,61.876999999999995,0.281296403579332,0.8999999999999986,-0.0004721876280890915
S085,14563.0,14592.984375,W,0.07921354166666644,65.18519869504682,-144.8,118.21,263.01,4.68,11.703116267107228,906.25,910.3759765625,0.5808120736783591,0.5455778266485501,0.5438417866336578,65.58612757346101,0.3557198116010142,66.73080248281148,0.28020833333333334,148,0.34301374166666665,0.0024294210712837005,3.6857772585116335e-06,30.745333333333335,0.01431394036905562,-6.736112938398548e-06,62.845,0.5705713510742249,1.8499999999999943,0.0010060766618046496
S085,14593.0,14622.984375,W,-0.045765625000000094,60.60512657201247,-146.15,124.19,270.34000000000003,2.245,106.14181664441213,937.5,997.1272786458334,0.4324058584118499,0.4303470317178142,0.44858961076789206,65.64741749099859,0.3209908033990296,66.73080248281148,0.20833333333333334,119,0.3497931416666666,0.0016577940930436982,1.719553200833667e-06,30.73266666666667,0.011234866364234906,-4.58333457664231e-06,63.386,0.13688437943510323,0.46999999999999886,-0.00014118059385324227
S085,14623.0,14652.984375,W,-0.2724010416666667,59.204353073306606,-135.4,106.75,242.15,6.140000000000001,32.90466504266418,921.875,928.3935546875,0.8194408397990398,0.47128366185404263,0.7467805612073886,65.67781794477933,0.3509819735478017,66.73080248281148,0.20208333333333334,134,0.35473652499999997,0.0018281111197193806,1.796498534206412e-06,30.709333333333333,0.015902480589168412,-8.541668983742488e-06,63.629666666666665,0.0627950811944879,0.28000000000000114,3.003473036966407e-05
S085,14653.0,14682.984375,W,1.0809062499999995,71.98604423494444,-174.79,162.24,337.03,7.8,62.91719379583172,906.25,925.7405598958334,2.504547946569733,13.87601625251032,7.8840968594970064,65.78033202990804,0.7331448481626587,71.22499561249548,0.05625,22,0.35505667500000004,0.004867114033939934,-5.930888544620371e-06,30.70133333333333,0.020450482200237152,4.861112429770039e-07,64.578,0.48931516769188144,1.3699999999999974,0.0008725002366808379
S085,14683.0,14712.984375,W,-1.0745677083333334,66.03441519169347,-151.65,111.93,263.58000000000004,2.495,62.721335244962894,921.875,938.2161458333334,0.9133409129475636,1.164206856261664,0.8782028435247747,65.70591325928584,0.3813958091089208,67.1863081289633,0.017708333333333333,13,0.34988925833333334,0.001769103913924762,2.096415282230719e-06,30.711333333333336,0.02418447619628889,3.861112158504735e-05,65.593,0.20386515150952153,0.6299999999999955,0.0003569098190402078
S085,14713.0,14742.984375,W,-0.3015468749999998,62.80685602381925,-131.34,110.23,241.57,8.195,46.50760287565789,890.625,904.2073567708334,0.46591154493995246,0.498744082393187,0.43491298618868063,65.70880497820716,0.35034269309421157,66.70832032063167,0.46979166666666666,160,0.35373300833333327,0.001455105823733746,1.6008760853070888e-06,30.75733333333333,0.02337139752394364,3.368056469199274e-05,65.33833333333334,0.12490218395030304,0.5,0.00010982641868120962
S085,14743.0,14772.984375,W,0.8141458333333335,65.77719970982524,-147.02,105.14,252.16000000000003,10.309999999999999,79.51759684179942,906.25,920.1090494791666,1.2138161349129446,0.4818944098266987,0.8509696266939,65.651151782709,0.28906966352733304,66.4304147209695,0.15416666666666667,83,0.3561670083333333,0.001215298444113175,-9.729494826794408e-08,30.795333333333335,0.01543444920371997,1.0972225198628564e-05,65.37466666666666,0.12271194816407201,0.38999999999998636,-0.00021597228080845108
S085,14773.0,14802.984375,W,-0.7020260416666665,61.662338905368905,-131.37,97.25,228.62,5.3149999999999995,30.593970142438796,921.875,921.3623046875,0.4949385746820845,0.2900232719350102,0.3660254217605657,65.38857525700418,0.2990555005929881,66.31741852635702,0.16041666666666668,94,0.3568075416666666,0.0014227152965124734,1.5496030679261843e-06,30.81333333333333,0.013743685418725242,1.5069448532293659e-05,64.59766666666665,0.8219597854450594,2.3799999999999955,-0.0014259378868104072
S085,14803.0,14832.984375,W,0.637671875,65.63570055099144,-143.91,110.83,254.74,10.265,67.46682892401036,937.5,950.0081380208334,0.22220486043288967,0.07902948640996107,0.47285700798444347,65.47002513712168,0.39101391022414717,65.80273550544841,0.0,0,0.3582060833333333,0.001232246644570631,-2.9501353488865445e-07,30.82466666666666,0.012578641509409254,4.1666677969427484e-07,62.59166666666667,0.27040812775424405,0.8699999999999974,-0.00043260428401808873
S085,14833.0,14862.984375,W,-0.11032812499999996,71.13656491907719,-159.76,112.58,272.34,7.115,10.147400611594762,906.25,912.4593098958334,0.5641141962305938,0.30948370705185035,0.4107866352770282,65.33972732866691,0.3509381932185162,66.31741852635702,0.20104166666666667,127,0.357565525,0.0012917925914693168,-1.832233569941834e-07,30.831333333333326,0.008844332774281878,-4.722223503207575e-06,63.044333333333334,0.8196653111009521,2.269999999999996,0.0014292712210479638
S085,14863.0,14892.984375,W,-0.8520312499999996,77.86713761901224,-166.46,129.15,295.61,5.855,85.7544921295226,906.25,919.5068359375,0.49594602185845005,0.4249068014642218,0.42934361238988983,65.64187884889681,0.3818697684886979,66.09841147864296,0.3645833333333333,189,0.3583342333333333,0.0013108129013029456,8.928622213710518e-07,30.81133333333333,0.014544949486180642,-2.5000006781685328e-06,64.43433333333334,0.18591545270782484,0.5999999999999943,7.878474359395106e-05
S085,14893.0,14922.984375,W,0.8726614583333332,77.79780908741618,-165.37,127.29,292.66,11.100000000000001,44.334348107677236,906.25,889.0950520833334,0.49798966515101717,0.40155405579102577,0.4475579959315018,65.60538308870733,0.3670850727304905,66.09841147864296,0.30833333333333335,189,0.3591564333333333,0.001173694670214067,2.614067549388971e-07,30.802,0.016812693617224636,-1.6527782261225488e-05,65.30933333333333,0.33058466725216157,1.3599999999999994,0.0005831946026461056
S085,14923.0,14952.984375,W,-0.22795312499999992,67.45855949540962,-140.45,119.8,260.25,5.27,57.04996623481139,890.625,893.1966145833334,0.11557806855349137,0.08507936450096985,0.4076045792867832,65.44732187014512,0.3325056775843885,66.09841147864296,0.203125,139,0.3586438416666667,0.001361388794551571,-1.9031363669532654e-07,30.776,0.018726095873583787,-2.1180561301150074e-05,66.81266666666667,0.2722980393286409,1.0499999999999972,0.0002073611673614295
S085,14953.0,14982.984375,W,0.7877031250000004,63.50730062350928,-151.59,116.29,267.88,8.495000000000001,18.451002101683127,906.25,907.51953125,0.20956925068657695,0.12801909579781015,0.4525966747557918,65.492426516746,0.37692034785388934,66.09841147864296,0.26666666666666666,166,0.35942335000000003,0.0013530306823941577,1.0531513273522506e-06,30.760666666666665,0.014360439485691705,-2.361111751603615e-06,66.71133333333334,0.3197783954900983,1.25,-0.0004917362445031033
S085,14983.0,15012.984375,N1,-0.7247239583333333,70.68440383012107,-166.08,121.44,287.52,3.815,13.142497998287183,890.625,899.2838541666666,0.4056031174545986,0.1462753717308556,0.49318159089449215,65.53320599842695,0.3749376406889226,66.09841147864296,0.2708333333333333,175,0.36084355,0.0012227458842703064,1.1957945952133987e-07,30.75533333333333,0.010241527663824593,-4.027778870382637e-06,64.48100000000001,0.44357148991641165,1.7299999999999969,8.83680795269303e-05
S085,15013.0,15042.984375,N1,-0.4745572916666662,67.04166633062862,-157.14,106.12,263.26,8.64,21.590791960017768,906.25,912.6383463541666,0.18113022862631797,0.45356898746374713,0.42555111326373,65.45328653930589,0.3514700606309922,66.09841147864296,0.22916666666666666,149,0.36093962500000004,0.0012483306390435856,2.405462892106888e-07,30.758666666666667,0.013349989596333572,7.291668644658222e-06,64.384,0.17978876494375307,0.6299999999999955,-0.00020875005662707692
S085,15043.0,15072.984375,N1,-0.2908125000000001,61.51234418430318,-140.45,101.78,242.23,7.574999999999999,18.55639355049586,921.875,921.8587239583334,0.26430431482163386,0.4155075021885887,0.3736070773739289,65.43074413748727,0.3145975439777562,66.64082832618455,0.203125,150,0.361718975,0.0011011981312983494,5.6718548372002194e-08,30.749333333333333,0.017499206331208543,-2.0208338815195643e-05,65.28633333333333,0.2579209611920348,1.0500000000000114,5.86805714736835e-06
S085,15073.0,15102.984375,N1,0.86090625,61.93816851902558,-152.44,119.61,272.05,7.605,31.96498146189589,937.5,939.5345052083334,1.021763500542893,0.2892083903616138,0.7807074504985134,65.51831915671012,0.37341426433239533,66.87301398920195,0.11979166666666667,76,0.361985875,0.0011445173259391843,5.896271130715897e-07,30.733999999999998,0.014966629547095447,-1.0972225198628562e-05,65.289,0.16056878069330055,0.5499999999999972,-0.0001488542070459552
S085,15103.0,15132.984375,N1,0.12143229166666672,55.94643530013588,-117.54,88.42,205.96,8.645,94.75853728810107,906.25,917.2688802083334,0.4794734072541343,0.06441510347391793,0.48924966466518915,65.56126346648905,0.38446847847694726,66.46803743153546,0.04791666666666667,42,0.3626477166666666,0.001251826307063226,9.004403484267418e-07,30.730000000000004,0.01154700538379227,2.500000678168533e-06,65.04833333333333,0.2882947951123787,0.8499999999999943,0.00019350699693657518
S085,15133.0,15162.984375,N2,-0.056807291666666516,56.905430081630726,-125.91,103.16,229.07,9.5,34.96575254294557,906.25,910.0748697916666,0.3904777500241069,0.06441510347391793,0.4568809849129202,65.65875236505627,0.33712687653825685,66.4304147209695,0.025,22,0.36314949166666666,0.0014212822027769713,-6.394270397751299e-07,30.720000000000002,0.014375905768564911,-1.062500288221627e-05,64.84266666666667,0.14137263604468162,0.4200000000000017,0.00020118061012928853
S085,15163.0,15192.984375,N2,-0.458984375,55.1442888254283,-125.12,103.01,228.13,8.530000000000001,87.03437164935957,906.25,915.185546875,0.8296559486049355,0.4996483138168285,0.5464492390271336,65.7414040609201,0.31470954678367663,66.73829485385434,0.40729166666666666,118,0.362541,0.0012205358454383856,-3.3053220771815566e-07,30.706,0.014966629547095447,-5.972223842291496e-06,64.96700000000001,0.22519843101880826,0.6799999999999926,-0.0002074653340563509
S085,15193.0,15222.984375,N2,0.4643749999999998,53.67550570252576,-149.25,86.83,236.07999999999998,8.23,13.743293359639587,906.25,900.7649739583334,0.8168128058020528,0.3560473960919935,0.6454762117464559,65.69894379099523,0.3335936864629266,66.73829485385434,0.27395833333333336,135,0.36231684999999997,0.0038845746005836982,9.869685837045856e-07,30.705999999999996,0.010832051206181052,-4.1666677969475596e-07,64.71333333333334,0.20809186005757732,0.7800000000000011,0.00031569453008206753
S085,15223.0,15252.984375,N2,0.13048437500000035,70.11313818590492,-241.31,211.19,452.5,5.675,35.06378352656177,906.25,921.9645182291666,6.167544630631653,6.6838810950716026,2.963251303877306,64.33729054760991,1.2074090686641203,77.6273147803014,0.03958333333333333,8,0.347721925,0.003648127275654592,3.1359064496273985e-06,30.628666666666668,0.017074997966487516,-1.5138892995576451e-05,65.21966666666667,0.3512310097673911,1.1999999999999886,0.00015274309698976976
S085,15253.0,15282.984375,N2,-0.2675156250000002,60.18868638952532,-126.63,95.09,221.72,5.779999999999999,13.988211524039423,906.25,906.4046223958334,1.2328682787339178,0.4807221130757352,0.1406790019769199,64.0528007107064,0.318152659158996,65.26101439603893,0.36041666666666666,122,0.34834123333333333,0.0010432912084147768,-4.383994244790117e-07,30.58266666666666,0.012092238098144446,-7.43055757122314e-06,66.082,0.05929586832149558,0.21999999999999886,7.215279735047977e-05
S085,15283.0,15312.984375,N2,0.03302604166666647,60.766815998736696,-123.24,97.99,221.23,7.77,21.227226707759776,890.625,895.7600911458334,0.5648869110027442,0.4953943697673826,0.17860558949042504,64.05763267990177,0.33057341108212007,65.19202405202648,0.4125,140,0.34701752499999994,0.001262676977447119,-7.069409469783375e-07,30.552000000000003,0.014922019523732608,-1.84027827698517e-05,66.26166666666668,0.11880188924797791,0.3500000000000085,0.00019864588721947872
S085,15313.0,15342.984375,N2,-0.6135624999999999,63.291967089337334,-147.32,104.29,251.61,3.9,8.196340510376826,906.25,904.58984375,0.3935019059674299,0.4992659542323665,0.14337208778404378,64.08325588361704,0.33363955829885056,64.53681120105021,0.45729166666666665,146,0.34757262499999997,0.0011019061595140536,1.3065758752646281e-08,30.528666666666663,0.015434449203720267,-8.194446667330526e-06,66.17366666666666,0.598601054310986,1.6300000000000097,-0.0009042016341692815
S085,15343.0,15372.984375,N2,0.18465104166666677,67.02949219904296,-152.69,105.01,257.7,5.58,18.33442272937689,906.25,907.8206380208334,0.7040433817126138,0.49716972391226727,0.20956925068657695,64.05468715456792,0.33255856191017075,64.5445582524197,0.4041666666666667,147,0.3472417,0.0011568469475259058,2.763268978751347e-07,30.5,0.013416407865000042,-8.26389113061381e-06,65.143,0.03865660788705664,0.13000000000000966,3.378473138691973e-05
S085,15373.0,15402.984375,N2,0.6225468749999998,73.99812553666823,-185.83,137.8,323.63,10.46,38.14599933654121,859.375,876.0986328125,0.8671047570635408,0.4083426338226542,0.26219393532692975,63.9339846628666,0.27909997313877183,65.31462317123173,0.16666666666666666,89,0.345394725,0.0016826961250846733,-6.963089996497873e-07,30.487333333333336,0.016110727964793382,-1.3472225876797588e-05,65.63933333333334,0.8304253260963456,2.4399999999999977,0.0012490975610616206
S085,15403.0,15432.984375,N2,-0.6421770833333333,63.54079192608195,-131.76,97.09,228.85,7.8100000000000005,19.28493052862985,843.75,842.5048828125,0.4475046554692662,0.21137108216357317,0.17468970506459605,63.90719471843531,0.14664544541644114,64.66065264130884,0.03125,27,0.3460354083333333,0.0011576240861914226,1.4202933540292098e-07,30.48333333333334,0.011925695879998888,1.388889265648876e-06,68.34066666666666,0.5176030224881689,1.8399999999999892,0.0009310419192279495
S085,15433.0,15462.984375,N2,0.5266510416666667,64.7589466855023,-131.7,99.64,231.33999999999997,8.600000000000001,38.85638983181169,906.25,909.9609375,0.5166498653182185,0.29292696461272083,0.33071891388307384,63.91569593452406,0.22234703835585123,64.72248450113763,0.03229166666666667,29,0.3457898833333334,0.001051187369781838,-2.6688375295240244e-07,30.476000000000006,0.014742229591663946,-4.791667966489504e-06,69.03633333333333,0.41411337685335514,1.3499999999999943,-0.0007148265827980102
S085,15463.0,15492.984375,N2,-0.6516770833333332,66.87956313715392,-133.18,101.41,234.59,8.35,24.860927739760584,921.875,923.1770833333334,0.4432949544791444,0.24393467007354425,0.33538431521001233,63.91152539260682,0.2122427623605627,64.72248450113763,0.010416666666666666,8,0.3457578333333334,0.0012547896857862376,3.7786815805884997e-07,30.464000000000002,0.013808210118138356,-4.86111242977215e-07,66.932,0.7796212755776576,2.719999999999999,-0.0013884031544062377
S085,15493.0,15522.984375,N2,0.5061250000000003,67.16656715680956,-140.64,105.13,245.76999999999998,10.265,82.41968940460556,953.125,952.6692708333334,0.8421145415213221,0.159884805537195,0.47280193175014273,63.85012449736241,0.33406836324495764,64.82283548256741,0.004166666666666667,4,0.34534144166666664,0.0013422125253713954,-1.3117683679927065e-06,30.45733333333333,0.012092238098144446,-9.23611361656708e-06,64.79433333333333,0.2233634308077806,1.0,-0.00038017371423983154
S085,15523.0,15552.984375,N2,0.3626979166666667,67.35325258178884,-151.76,128.65,280.40999999999997,8.864999999999998,38.4460216128571,906.25,912.0524088541666,0.5921497074572162,0.2900232719350102,0.49025220266942426,63.793195637769486,0.3551154571902879,64.93843238021688,0.37604166666666666,177,0.3459392833333333,0.0014605339216837293,1.0842759017675405e-06,30.456666666666667,0.015776212754931972,9.44444700641446e-06,63.732,0.14998666607402056,0.6099999999999923,-0.00010506947294636209
S085,15553.0,15582.984375,N2,-0.40716145833333367,66.8830204552989,-140.78,101.36,242.14,6.515000000000001,16.482654660546867,906.25,906.0139973958334,0.5664205577694801,0.2304038573895845,0.30728990112487153,63.64650964440457,0.26207839422111884,64.5600495662759,0.14583333333333334,108,0.34745520833333327,0.0012220293156319534,1.7121944748791123e-07,30.45466666666666,0.011175369742826569,6.944446328245872e-08,64.71266666666666,0.3721104973287131,1.3800000000000097,0.000649444620617573
S085,15583.0,15612.984375,N2,-0.09355208333333334,65.02257054755579,-142.58,101.28,243.86,9.120000000000001,51.91785847136316,843.75,849.9674479166666,0.6404335757364347,0.1665331496446145,0.23606106495754203,63.757314126874796,0.1667692827753322,64.72248450113763,0.04375,34,0.3473591333333333,0.0012763535555984857,2.599288899546648e-07,30.445999999999994,0.01306394529484334,-4.027778870382637e-06,66.51133333333334,0.8246402582675401,2.4200000000000017,0.0014495837265580847
S085,15613.0,15642.984375,N2,-0.0050416666666665225,63.59210460032176,-141.27,103.77,245.04000000000002,8.82,20.348300521915363,828.125,835.4654947916666,0.3906444439605179,0.1462753717308556,0.26672362672915867,63.78737888370626,0.1922545530579042,64.64518543557594,0.09270833333333334,72,0.3476900499999999,0.0010612904397477683,-1.5067321795605668e-07,30.431333333333335,0.011469767022723258,-3.055556384428208e-06,69.212,0.8848781460366931,2.6500000000000057,0.0015825004292807174
S085,15643.0,15672.984375,N2,0.4824947916666668,64.25049643513606,-169.93,106.64,276.57,7.58,22.336563519652078,828.125,834.2529296875,0.9740730770198918,0.40051507635654476,0.5173676360513221,63.8253176880462,0.35453775536195853,65.49045732013177,0.022916666666666665,17,0.34859742499999996,0.0013332643377721508,1.0294149927883541e-06,30.426666666666673,0.010434983894998796,3.4027787008405037e-06,71.239,0.2009203822413234,0.9199999999999875,0.00012225697760877117
S085,15673.0,15702.984375,N2,-0.1293437500000002,65.115221671429,-140.35,101.9,242.25,9.030000000000001,15.416908605928157,843.75,840.625,0.46479815661089807,0.1682735042192389,0.4609348516873073,63.90190837090064,0.3509841739339315,64.56779382943171,0.027083333333333334,21,0.3496009166666667,0.0012764267480179056,5.990995548772706e-07,30.41266666666667,0.013399834161494236,-2.9166674578632887e-06,71.38366666666667,0.08203590000048307,0.23000000000000398,-0.00010829864048900324
S085,15703.0,15732.984375,N2,-0.685671875,65.84846868210187,-213.85,132.36,346.21000000000004,8.67,16.2883986295365,843.75,843.0826822916666,2.1887486515637704,0.2418731158410679,0.4716990566028302,63.961729905151664,0.45782916074332874,68.51277253184256,0.008333333333333333,3,0.35011335,0.0012036966094078755,-3.8836425465610525e-07,30.40466666666667,0.01146976702272326,-9.722224859544286e-07,71.31300000000002,0.0871837140755082,0.3299999999999983,6.427085076791709e-05
S085,15733.0,15762.984375,N2,0.00723437500000017,62.049237361074006,-146.75,119.11,265.86,8.19,27.990963696314754,843.75,846.5657552083334,1.7101105466013657,0.2684510611307436,0.49088921583410466,63.97226555574409,0.5383908109891641,73.44385610791416,0.009375,2,0.35074330833333334,0.0013205498084499687,5.489157305001468e-07,30.399333333333335,0.013399834161494236,-1.0416669492368888e-05,71.31533333333333,0.12497288594820168,0.3299999999999983,0.00018895838459157636
