participant_id,window_start_time,window_end_time,sleep_stage,BVP_mean,BVP_std,BVP_min,BVP_max,BVP_range,BVP_median,SDNN,median_nni,IBI_mean,x_std,y_std,z_std,mag_mean,mag_std,mag_max,movement_density,burst_count,EDA_mean,EDA_std,EDA_trend,TEMP_mean,TEMP_std,TEMP_slope,HR_mean,HR_std,HR_range,HR_trend
S087,7897.0,7926.984375,W,-0.7184531250000005,142.767962008627,-884.03,847.06,1731.09,3.33,3.8571042387462664,906.25,906.2418619791666,29.376799516393696,14.727914108693584,6.79940374415593,64.75601273245606,2.497803700718175,84.44524853418338,0.041666666666666664,14,0.050014875,0.01608894036834128,-1.1857305950875093e-05,32.170666666666655,0.014126413400279612,3.263889774275968e-06,70.30466666666666,1.056862442431474,3.799999999999997,0.0018435421667594841
S087,7927.0,7956.984375,W,-0.005953124999999796,64.65902910756718,-358.31,557.82,916.1300000000001,-0.515,6.194391824397107,921.875,918.8232421875,1.7788836621132178,2.58432251726906,0.47121573703913294,64.8572900768193,0.4761465719536659,71.02816342831905,0.15833333333333333,80,0.05451898333333333,0.002154331179984998,3.439021766227692e-06,32.17433333333333,0.017065234314895112,1.2673614549050312e-05,69.47766666666666,1.9441993782074476,5.280000000000001,-0.003314410621313646
S087,7957.0,7986.984375,W,0.8086770833333339,52.155696334387976,-521.5,245.36,766.86,3.86,85.93745337590967,750.0,835.8479817708334,2.657842659783808,0.49565823238733087,2.0185070373229377,64.90274068958962,0.40937063062680057,68.4470598345904,0.19479166666666667,125,0.05923650833333334,0.0014246798470523895,1.6959299305365468e-06,32.189,0.015989579940282286,-2.2569450566794766e-06,65.16166666666668,1.2297508781140276,4.199999999999996,-0.0021351741903141786
S087,7987.0,8016.984375,W,-0.7047239583333332,68.88008094406759,-477.39,425.95,903.3399999999999,7.045,0.0,750.0,750.0,1.733040026766549,1.6343398126656186,0.80256681856646,64.70136489583871,0.41962953764617356,70.46275611981126,0.11041666666666666,72,0.061659475000000005,0.0012734608354303624,1.4008161352040284e-06,32.193999999999996,0.018903262505010832,9.513891469696906e-06,64.23233333333333,0.7580047639838567,2.3300000000000054,0.0004534376230028273
S087,8017.0,8046.984375,W,1.0913229166666667,58.65841755824471,-298.32,381.19,679.51,2.33,115.65415269755603,750.0,837.0524088541666,3.068395508773908,1.0115972484420643,1.3842456673973496,64.77633821922032,1.0241697007053698,77.42092740338364,0.025,9,0.06314325833333333,0.0010273769877365165,6.608921063617935e-08,32.19566666666666,0.018917951498217827,-1.7326393588974997e-05,62.440000000000005,0.8669602066992467,2.3000000000000043,-0.0015177087450381802
S087,8047.0,8076.984375,W,-0.3297187499999997,84.70057282632979,-648.71,419.87,1068.58,0.725,69.90291354935523,1000.0,1035.2945963541667,6.726538121810258,5.682804456697024,3.67758775458973,64.83696788583492,3.668828655653469,142.9160592795645,0.029166666666666667,13,0.059823675,0.0034224207737664765,-2.700576036397576e-06,32.16299999999999,0.010049875621121696,-8.854169068514475e-06,60.559,1.2341619288677905,4.009999999999998,0.0010846877942403944
S087,8077.0,8106.984375,W,0.3613593750000005,146.69455742991406,-1044.38,609.28,1653.66,0.76,0.0,1000.0,1000.0,21.452068664816455,9.229184537228749,8.506060888072529,65.32314007842531,6.408724154964399,152.16438479486584,0.04479166666666667,19,0.056600250000000005,0.012314096650620918,4.683943110878661e-06,32.16833333333333,0.012133516482135199,1.562500423855672e-06,64.27266666666667,1.5995643851443495,5.529999999999994,0.002614167375804951
S087,8107.0,8136.984375,W,-1.6523229166666666,129.68338982972745,-838.3,636.21,1474.51,-3.62,0.0,1000.0,1000.0,1.4493439458126869,0.7459955305477521,1.7748529746424695,64.92674854655395,0.5530504852351996,70.16409338115899,0.096875,66,0.06368749166666668,0.001983872534530354,1.397060491824136e-06,32.167333333333325,0.011527744310528146,4.79166796648985e-06,70.51400000000002,1.1764341602203396,3.719999999999999,-0.0013567364791494362
S087,8137.0,8166.984375,W,1.7118489583333354,184.3555951832855,-1072.88,1499.36,2572.24,3.31,0.0,1000.0,1000.0,2.0154005042939565,2.840072981444413,1.8745482673426208,64.94433222765949,0.976474869137071,71.87489130426563,0.03958333333333333,19,0.06155268333333334,0.005018850886048407,-4.281233800247885e-07,32.155666666666654,0.0066749947981664635,1.7361115820643805e-07,65.54033333333334,1.6142954775656428,6.190000000000005,-0.0027832993661293837
S087,8167.0,8196.984375,W,-0.92403125,106.74342806858114,-825.15,650.83,1475.98,-0.175,150.30837591113243,687.5,829.2805989583334,8.2513877199872,6.092047037685691,1.9076710891490178,64.97203213082678,0.591290219899021,71.05631569396206,0.035416666666666666,18,0.063634125,0.0015857574402710526,1.838711653296348e-06,32.161666666666655,0.00897527467855814,6.631946243474939e-06,59.13400000000001,0.5179742593347015,2.3999999999999986,-0.00047201401693088555
S087,8197.0,8226.984375,W,0.7906250000000009,99.56191779556181,-492.05,966.59,1458.64,-6.265000000000001,180.32139794197468,1078.125,948.9013671875,0.5361862173930082,0.2771675154076001,0.502839161384853,65.03899159896308,0.3281718909509124,66.29479617586888,0.31979166666666664,109,0.06696395833333334,0.001206018597119141,9.924249653930576e-07,32.167333333333325,0.0145907124188275,-8.333335593896222e-06,62.059333333333335,1.219671904880799,4.130000000000003,0.0019821533154712767
S087,8227.0,8256.984375,W,-0.2603385416666665,123.17160824367483,-871.9,771.75,1643.65,-4.85,0.0,1078.125,1078.125,0.5281147270532753,0.26013317903207445,0.49405207883098945,65.00912634218273,0.3368860729134242,66.87301398920195,0.30416666666666664,122,0.06868243333333333,0.0011814524093485795,9.423887105004122e-07,32.161666666666655,0.0077817450199531854,-5.729168220803351e-06,63.50599999999999,0.7387313449421243,2.5,0.0013020142420828564
S087,8257.0,8286.984375,W,-0.7732239583333326,114.886475554729,-994.59,907.88,1902.47,-4.665,0.0,1078.125,1078.125,1.875080727428822,1.902928287589507,1.2869836983934784,65.02907434991063,0.7635645751752402,77.41446893184762,0.016666666666666666,6,0.06656895833333334,0.001745729634450083,-4.6664530887731e-07,32.161666666666655,0.01267105187249903,8.680557910298463e-07,64.85166666666667,0.45800351769634023,1.3499999999999943,-0.0007094793591252589
S087,8287.0,8316.984375,W,0.9592916666666669,50.21268226377938,-130.73,362.78,493.51,-4.455,82.06790771059892,1078.125,1091.0888671875,0.40504093585984885,0.19927984493476056,0.3861985312705831,65.10897668526746,0.28377807754969603,65.83312236253116,0.004166666666666667,4,0.06663305833333334,0.0011392522203608904,6.624465772695778e-07,32.15666666666665,0.007888106377465285,-1.6666671187787013e-06,64.316,0.5930969566605441,1.8999999999999986,-0.0010095141627371302
S087,8317.0,8346.984375,W,-0.45111979166666705,116.72581316489718,-647.89,702.67,1350.56,-3.925,46.90286373346056,1015.625,1002.7262369791666,0.3938767432698824,0.31340840191176894,0.4884239374849817,65.05594919379313,0.31214232000954995,65.83312236253116,0.014583333333333334,10,0.067743225,0.001081867932963634,3.700111680802871e-07,32.145999999999994,0.011430952132986637,-8.05555774076441e-06,61.79133333333333,0.5199149503097169,2.059999999999995,-0.0005295834769920462
S087,8347.0,8376.984375,W,0.28251041666666704,69.81412486134981,-245.14,585.84,830.98,-1.4449999999999998,13.062068496058531,953.125,962.0768229166666,0.17676441871095613,0.23877581303157341,0.47651439875645124,65.10357220218192,0.3193271811462255,65.83312236253116,0.011458333333333333,8,0.06830899166666665,0.0008956628969263833,6.6842466048846575e-09,32.12733333333333,0.012364824660661133,-9.027780226720666e-06,61.90233333333333,0.5203119790621349,1.470000000000006,0.0008439932845033867
S087,8377.0,8406.984375,W,-0.2603072916666669,150.93308764999747,-605.83,664.45,1270.2800000000002,-5.66,36.707403355226674,1031.25,1010.4654947916666,4.057365211143462,3.750762509282835,2.9636643208361537,65.06869906108118,1.1586748890238407,72.73926037567333,0.052083333333333336,23,0.06627026666666667,0.008163463048581501,2.2389255205418636e-06,32.107333333333344,0.01339983416149386,-8.888891300154267e-06,62.55733333333333,0.6277044598287386,1.9599999999999937,0.0009963197147134636
S087,8407.0,8436.984375,W,-0.47681249999999953,60.073310659475425,-262.65,372.78,635.43,-3.6950000000000003,75.3053172631619,1171.875,1146.2890625,0.3863881337859065,0.37546267753562695,0.47761978573151903,65.07933190824814,0.35109359067285084,65.49045732013177,0.38229166666666664,156,0.06987771666666666,0.001029633730858805,4.989037811696446e-07,32.080000000000005,0.013416407864999777,-6.180557232138789e-06,63.48866666666667,0.5058770162357216,1.500000000000007,-0.0008953474651007682
S087,8437.0,8466.984375,W,0.3496093749999997,71.85938259968442,-576.96,362.79,939.75,-2.5549999999999997,0.0,1171.875,1171.875,0.3327534017690712,0.4530842893589325,0.48768581750674506,65.05103536257486,0.3510198337724934,66.2117814289874,0.346875,149,0.07057135833333333,0.0011737095026441672,7.847955687922006e-07,32.071999999999996,0.009451631252506693,1.5972226554968463e-06,64.19566666666667,0.5166280630739644,1.75,0.000629687670813713
S087,8467.0,8496.984375,W,0.23317708333333348,78.04691468190447,-924.37,453.79,1378.16,-5.005,246.2519981574304,1171.875,981.005859375,0.46965075492031544,0.24292059745247352,0.41465660993967846,64.99577305410668,0.30363371418705715,67.48333127521195,0.20208333333333334,107,0.0717347,0.001052333649561771,-3.354853340617766e-07,32.058,0.013266499161422673,-9.72222485954469e-06,64.46533333333333,0.6697200078308007,2.2199999999999918,0.0008915280196202301
S087,8497.0,8526.984375,W,0.060380208333333275,28.828932279324157,-73.64,146.35,219.99,-7.925,3.844032711393998,609.375,609.6923828125,0.437141470156465,0.162326296048696,0.2378081882000702,65.00617979576586,0.24308097531346567,65.67343450741707,0.22083333333333333,108,0.07209764166666667,0.0010893805563700974,7.925290778344926e-07,32.03666666666666,0.014681810363695627,-7.291668644656951e-06,67.33233333333334,0.6350731366456058,2.1700000000000017,0.00047593762910634466
S087,8527.0,8556.984375,W,0.9370885416666669,60.98569890942734,-416.3,388.25,804.55,-4.59,0.0,609.375,609.375,0.46517619123176207,0.15612494995995993,0.31423822129432666,65.00122710656036,0.26389639639038165,65.67343450741707,0.240625,114,0.07258867499999999,0.0010610219693177917,3.0829630758905993e-07,32.020999999999994,0.016401219466856864,-9.340280311491269e-06,66.208,0.8096929459163311,2.6899999999999977,-0.0013284725825934744
S087,8557.0,8586.984375,W,-0.577010416666667,103.43736420242796,-490.96,421.66,912.62,-7.295,0.0,609.375,609.375,0.4465142774872938,0.18257121422581624,0.32321726600178197,64.98975231477326,0.26380686954931837,66.10597552415364,0.19583333333333333,108,0.0729623,0.0010709105518202755,2.301797499402536e-07,32.004,0.013564659966251296,-1.0138891639239693e-05,61.910333333333334,1.1645041386310697,3.8100000000000023,-0.0011435766991039216
S087,8587.0,8616.984375,W,-0.05679687500000021,63.89729182283138,-487.54,287.08,774.62,-3.255,68.9912546293209,515.625,534.2854817708334,0.42746299181917496,0.13591255358583407,0.2845847822071463,64.9895589614974,0.2435350557586109,65.67343450741707,0.19166666666666668,95,0.07316513333333334,0.0011642225297978446,7.502905681126771e-07,32.001666666666665,0.015509853498843339,7.534724266147317e-06,63.09733333333334,0.6143231144022577,1.769999999999996,0.001071319735058523
S087,8617.0,8646.984375,W,0.17050520833333363,47.30409239921547,-295.63,396.35,691.98,-6.07,0.0,515.625,515.625,0.5221483399273514,0.20621580103673487,0.39335711218730157,65.02329379569508,0.285798224953685,65.83312236253116,0.30833333333333335,130,0.07443542499999997,0.0011238165083210852,3.1021731505461016e-07,31.989666666666672,0.01277584526449155,-5.312501441108424e-06,65.212,0.471221108751861,1.6899999999999977,0.00037465287940887656
S087,8647.0,8676.984375,W,-0.10072916666666659,34.59377230185344,-87.93,229.56,317.49,-4.970000000000001,0.0,515.625,515.625,0.5038738819276992,0.11580316603568701,0.40566731717285565,65.01998328380374,0.2863251774004844,65.67343450741707,0.3229166666666667,140,0.07499044166666666,0.0009899857810075944,2.995810274471106e-07,31.98966666666667,0.010159833769418985,-3.7847232488941106e-06,65.44066666666667,0.3729068993134285,1.1499999999999915,-0.0004208334474917108
S087,8677.0,8706.984375,W,-0.49836979166666684,37.61930958074595,-170.59,323.74,494.33000000000004,-5.415,272.25988908950023,1062.5,814.4124348958334,0.5082554158180053,0.11987768650679832,0.3886352099191334,65.02578348567219,0.2897247103934274,65.83312236253116,0.3302083333333333,150,0.07533190833333331,0.0011088332155606408,5.479925531663821e-07,31.985000000000007,0.011180339887499108,-8.506946752101635e-06,63.87999999999999,0.3272206187472498,1.1499999999999986,-0.0004547917900368346
S087,8707.0,8736.984375,W,0.2408645833333333,50.62289334487572,-397.73,248.29,646.02,-6.225,57.27060971402013,984.375,1000.2848307291666,0.5177030935348519,0.16372402253657084,0.4529561467000236,65.04327307928288,0.3222997577291526,66.03029607687671,0.4,165,0.0760682833333333,0.0009680553632870846,2.698516357019409e-07,31.98200000000001,0.011075498483890531,-8.33333559389511e-06,62.38199999999999,0.477970710399707,1.6400000000000006,-0.0008065974410257825
S087,8737.0,8766.984375,W,-1.7257187499999997,104.50084389015349,-677.2,539.74,1216.94,-7.66,132.72614283209106,546.875,586.4827473958334,2.44526807068264,0.44740280601861826,1.0054517192397763,65.09459059613785,0.3658667168984302,66.76076692189807,0.09479166666666666,52,0.07621769999999997,0.0009917703161518813,-3.342995698512289e-07,31.972333333333335,0.015423647068345477,-1.079861404042237e-05,61.525,0.22704992108932018,0.7700000000000031,-8.538196760578415e-05
S087,8767.0,8796.984375,W,1.72396875,93.84989480869538,-478.32,337.82,816.14,-1.43,247.0564055015605,1062.5,855.5419921875,0.5153366196935962,0.3553518771544935,0.39077774791291386,65.140969299204,0.33996631229413454,66.19667665374146,0.24791666666666667,145,0.07665519166666665,0.001210914511817642,-7.309639569672191e-07,31.97466666666667,0.013349989596333572,5.486112599314282e-06,63.224333333333334,0.5030883509771311,1.8699999999999974,0.0005529515388865946
S087,8797.0,8826.984375,W,0.06114062500000011,248.9519584304474,-1901.97,2050.05,3952.0200000000004,-3.3099999999999996,0.0,1062.5,1062.5,0.2406588179698942,0.49984372557830503,0.343333080501525,64.96321388910324,0.3285186934658719,65.83312236253116,0.16354166666666667,112,0.07666588333333332,0.0010623281208689214,1.603103733480838e-07,31.954666666666665,0.01431394036905562,-1.2847225707254962e-05,62.626,0.7417888288904507,2.200000000000003,-0.0013102781332134687
S087,8827.0,8856.984375,W,-0.2955104166666666,26.01237445808837,-126.17,105.4,231.57,-6.29,0.0,1062.5,1062.5,0.2650647686834714,0.3392636532092539,0.2808716591058786,65.04418994707552,0.2780511861020645,65.83312236253116,0.06979166666666667,61,0.07665524166666665,0.0011046313336420864,4.452125773688638e-07,31.94333333333333,0.01074967699773117,-5.555557062596741e-06,60.73633333333334,0.4797741366749804,1.6300000000000026,-0.0006066321090039367
S087,8857.0,8886.984375,W,-0.039213541666666414,131.5244273496064,-1177.83,742.57,1920.4,-3.5999999999999996,23.43424456557913,1062.5,1039.453125,0.6095272245765566,0.460825374780585,0.6171696991103823,65.11252572906284,0.4153731440495898,68.19090848492928,0.33229166666666665,132,0.07742356666666665,0.0010437616085848134,4.2127398580566107e-07,31.935999999999996,0.010519822558706109,1.3194448023667258e-06,60.794999999999995,0.29364093720052137,0.9000000000000057,-0.00020607644479070237
S087,8887.0,8916.984375,W,0.37584895833333337,58.34572577004623,-560.44,330.5,890.94,-5.205,257.7766902213704,500.0,753.515625,0.16627231993028782,0.2763853991962833,0.48328730923115387,65.10116645900435,0.33634160760818627,65.87108622149782,0.30416666666666664,113,0.07779709166666665,0.0010126264447451586,2.504646946790064e-07,31.932000000000002,0.014922019523732608,4.0972233336650955e-06,60.59766666666667,0.3873300344093588,1.2099999999999937,0.0006569099004204368
S087,8917.0,8946.984375,W,0.15810937500000008,35.76871210054658,-176.38,95.4,271.78,-4.68,0.0,500.0,500.0,0.21182234678433298,0.20770478097931847,0.4258251283456104,65.03754844795245,0.30889622891929863,65.87108622149782,0.25729166666666664,130,0.07841622499999999,0.0010776464050768209,7.330724644836319e-07,31.91733333333334,0.01412641340027776,-5.486112599314281e-06,60.75699999999999,0.3693882329834921,1.0200000000000031,0.0005487154266263633
S087,8947.0,8976.984375,W,-0.4296145833333333,38.621433563197186,-98.27,293.93,392.2,-7.87,76.84597380584485,656.25,592.2037760416666,0.21794494717703367,0.3188248822716877,0.4741769184597664,65.09215001335036,0.33777207230196904,65.87108622149782,0.27395833333333336,123,0.07908875833333333,0.0011246549396432153,-6.866297435519053e-07,31.904000000000003,0.012806248474865424,-7.43055757122314e-06,59.937999999999995,0.7659303710738556,2.3700000000000045,-0.0013765975956482204
S087,8977.0,9006.984375,W,0.4763124999999998,33.113167566667144,-130.09,136.17,266.26,-5.93,103.68132087548268,656.25,698.4619140625,0.2434359622330549,0.35476511938260724,0.4870713482272273,65.05745032885234,0.33545746214850913,65.87108622149782,0.234375,114,0.07876849999999999,0.001032775217557042,-2.980104975071883e-07,31.891999999999992,0.010770329614268779,-1.3194448023667258e-06,59.37733333333333,0.4866342454954123,1.3200000000000003,0.0007907641033973812
S087,9007.0,9036.984375,W,0.0805052083333333,73.01002673366868,-379.15,401.01,780.16,-7.805,0.0,953.125,953.125,0.4609760459400852,0.28135800395383975,0.3731377370802011,65.01839169662153,0.3249864377113519,65.87108622149782,0.31979166666666664,167,0.07887525,0.0009864993854534296,2.9300658989979046e-07,31.884,0.014742229591663674,5.6250015258792e-06,61.08500000000001,1.087795170670165,3.010000000000005,0.0019119796853243503
S087,9037.0,9066.984375,W,1.6320156249999997,67.16091343161219,-373.51,426.19,799.7,-8.01,207.5136660476295,953.125,801.318359375,0.4596087840489997,0.22267315359812312,0.32984996326191834,65.00789599792053,0.28599170771771415,66.03786792439622,0.3072916666666667,154,0.08010287499999999,0.0009769229034959739,4.817651046454823e-07,31.879999999999995,0.012382783747337544,-6.250001695421339e-07,62.42466666666667,0.48081689746606104,1.3500000000000014,-0.0007430557571223296
S087,9067.0,9096.984375,W,-2.004541666666667,168.87883982927406,-1145.69,1161.32,2307.01,-8.535,0.0,500.0,500.0,4.0044457715768855,0.5972157622389639,2.0794588972988994,65.04451570917703,0.3601751776864905,67.05967491719595,0.125,91,0.080583225,0.0013186387201864678,7.594808917862669e-07,31.876666666666665,0.015776212754931972,3.888889943817718e-06,59.552666666666674,0.8843375423948078,3.1200000000000045,-0.0014715976214186252
S087,9097.0,9126.984375,W,-0.405328125,91.66766749716882,-852.75,925.93,1778.6799999999998,-6.14,17.810928245637445,500.0,500.8138020833333,0.49157838190420416,0.4675911601554884,0.4757019210685756,64.92482353375651,0.3617053735354304,65.99242380758567,0.05,44,0.0812237,0.0009438909947658182,2.123364291277213e-07,31.87133333333333,0.015434449203720288,5.9722238422917555e-06,57.927,0.3790703540681245,1.4499999999999957,0.00023031256247628168
S087,9127.0,9156.984375,W,0.025744791666666465,107.45573661429289,-1146.55,908.28,2054.83,-4.67,0.0,890.625,890.625,0.4256072051264587,0.4499119802034122,0.4977553783402713,64.94570718605587,0.3563609168984317,66.83561924602779,0.023958333333333335,20,0.081970625,0.0012260724833283746,2.3800288574297047e-07,31.85466666666667,0.012310790208413375,-1.0416669492368518e-06,59.99966666666667,0.28084970278701676,1.2899999999999991,0.00023052089586612858
S087,9157.0,9186.984375,W,0.3446093749999994,65.07934589273758,-587.52,437.01,1024.53,-5.220000000000001,23.893650477382234,890.625,894.3684895833334,0.3370737405928,0.48789046862487484,0.43886196735293537,64.91800170686967,0.30776785656271227,65.67343450741707,0.36770833333333336,149,0.08214143333333332,0.0009770312408288494,8.173743536714312e-08,31.85466666666667,0.012310790208413377,-9.027780226719334e-07,62.74433333333333,1.3041745367174686,3.710000000000001,0.0019269796893933632
S087,9187.0,9216.984375,W,0.7321458333333334,73.3393265487526,-448.01,563.51,1011.52,-5.47,11.27406995066536,1125.0,1116.9596354166667,3.308054538000982,0.5156818150516848,1.598460834656438,64.9298441975085,0.36043837282816765,67.14908785679818,0.05416666666666667,40,0.082472275,0.0013762436373604067,1.052466214319177e-06,31.85666666666667,0.014907119849998861,5.555557062596741e-07,62.30666666666668,0.36341283533866714,1.25,-0.00044722234353904784
S087,9217.0,9246.984375,W,-0.96140625,27.00693633127659,-96.36,82.18,178.54000000000002,-6.865,61.36284376614393,953.125,983.6018880208334,0.33083536680735265,0.39352258644411586,0.38908725099762503,64.99265096103166,0.32772609118647417,66.12110101926616,0.016666666666666666,14,0.083048575,0.0010054599417057828,-2.2014545902382374e-08,31.836666666666662,0.010749676997732785,2.3611117516041205e-06,58.83933333333333,1.4691152288216047,4.339999999999996,-0.0021317366893816975
S087,9247.0,9276.984375,W,-0.14283333333333303,82.894561947149,-877.01,667.63,1544.6399999999999,-4.4350000000000005,0.0,953.125,953.125,0.3259334884434075,0.32425127430572864,0.4389806294764674,65.0121325458444,0.3190431134304076,65.58200972827838,0.030208333333333334,25,0.08358210833333334,0.0010777754079262295,5.488692895153233e-07,31.842666666666666,0.01093414631123923,-4.861112429771161e-07,59.92366666666667,0.6763208475929811,2.740000000000002,0.0011717711511966006
S087,9277.0,9306.984375,W,0.2727031250000002,76.29212295809792,-600.93,898.6,1499.53,-6.615,45.0828718995027,953.125,961.0107421875,0.39905351345054235,0.3492908863166757,0.4483174079420616,65.00952273880962,0.31370624081794574,65.58200972827838,0.04583333333333333,37,0.08443593333333332,0.0010349047438720552,5.251195000866686e-07,31.83533333333333,0.012578641509410056,-5.833334915727133e-06,62.27633333333333,0.7199837189517241,2.4299999999999997,-0.0006807987957896046
S087,9307.0,9336.984375,W,-0.1878385416666661,79.61218140974208,-822.14,518.69,1340.83,-6.595000000000001,22.95803468882684,1125.0,1111.7919921875,0.41731200025347404,0.3075281575861523,0.4144943371815296,65.0824795433942,0.3010783126418263,65.58200972827838,0.08645833333333333,60,0.08484158333333335,0.001071686004879953,3.3163073232170446e-07,31.833999999999996,0.012000000000001164,-6.11111276885675e-06,58.51866666666667,0.9452679808157871,3.1999999999999957,-0.0016754865656159296
S087,9337.0,9366.984375,W,0.09445312499999996,27.748449540261305,-82.66,95.5,178.16,-6.52,0.0,1125.0,1125.0,0.4930066485916347,0.31725377318043396,0.49874408239318707,65.05693138679668,0.3109987143002131,65.58200972827838,0.13645833333333332,87,0.084884275,0.0010189453858647178,3.983666445222012e-07,31.828666666666663,0.015434449203720942,7.361113107941187e-06,55.72466666666666,0.4482762045386253,1.6499999999999986,-0.0006133334997106935
S087,9367.0,9396.984375,W,0.05732291666666676,29.29428609174307,-144.54,118.24,262.78,-6.08,0.0,1125.0,1125.0,0.4996863165332383,0.2609556921469407,0.47981726664950275,65.0903738427604,0.32032485025875684,65.58200972827838,0.17395833333333333,117,0.08514047500000001,0.0010712829221895597,2.4185553435751896e-08,31.821333333333328,0.012310790208413216,-3.1250008477109134e-06,57.828,0.987334458698436,3.049999999999997,0.0016628476732985225
S087,9397.0,9426.984375,W,0.40407291666666667,28.873835118546626,-85.86,89.62,175.48000000000002,-6.17,57.66152954740356,1125.0,1088.0859375,0.4955356249106168,0.3121091305537215,0.4519200934162292,65.10666164106621,0.31738770568151137,65.58200972827838,0.18333333333333332,104,0.08540735000000002,0.001032554515509959,-2.2628782180116686e-07,31.817999999999994,0.013266499161421603,-1.152778090488852e-05,60.12833333333334,0.6438844789418537,1.8900000000000006,0.000989201657227012
S087,9427.0,9456.984375,W,0.05489062500000002,92.08512829107569,-683.58,852.29,1535.87,-4.97,38.57085008036031,1062.5,1062.646484375,0.5007535554181206,0.33538431521001233,0.48046811483697854,65.08816877310504,0.3431993062254906,65.58200972827838,0.221875,130,0.0859411,0.0011142982051497727,7.311265004140908e-07,31.805999999999997,0.011999999999999744,-1.0416669492368888e-05,59.80133333333333,0.3005409936911919,1.0800000000000054,-0.00023708339764632076
S087,9457.0,9486.984375,W,-0.016744791666666772,70.17986325089296,-711.99,504.96,1216.95,-6.17,0.0,1062.5,1062.5,0.5019233839276003,0.43420885111762625,0.4025957443060387,65.12124918833963,0.34759288951384487,65.6505902486794,0.27395833333333336,146,0.085802325,0.0010906799573545882,-3.92250757446496e-07,31.79533333333334,0.015434449203719973,-2.9166674578632887e-06,59.96933333333334,0.19008653000380882,0.7199999999999989,0.0001327083693327835
S087,9487.0,9516.984375,W,-0.5719114583333329,65.87600676604553,-384.67,698.65,1083.32,-6.4399999999999995,0.0,1062.5,1062.5,0.49620849777476495,0.3903123748998999,0.450394069352976,65.11375142723685,0.34369328188414633,65.58200972827838,0.2604166666666667,137,0.08547140000000002,0.001081077652160105,3.374857686322081e-07,31.800666666666668,0.01691810338726601,1.2222225537712966e-05,60.448333333333345,0.4561438613225241,1.4299999999999997,0.0004742709619875651
S087,9517.0,9546.984375,W,-0.04476041666666696,62.67611358076084,-613.36,505.96,1119.32,-6.525,0.0,1062.5,1062.5,0.5007633062524538,0.34409547033974935,0.4641194900471933,65.12182038468696,0.34546073279729916,65.58200972827838,0.26145833333333335,125,0.086122575,0.0010717083298990475,6.574578606385269e-07,31.79466666666667,0.013349989596333572,-1.0486113955651348e-05,60.45000000000001,0.2609725400624876,0.9799999999999969,-6.791668509024618e-05
S087,9547.0,9576.984375,W,0.1525729166666668,52.26690777319591,-424.27,374.07,798.3399999999999,-5.755,0.0,1062.5,1062.5,0.49840783828496205,0.34378787670112315,0.4822860420838331,65.10668953716768,0.3524001194593235,65.58200972827838,0.2604166666666667,130,0.086250675,0.0009132585720238295,-1.4733727955112914e-08,31.784000000000002,0.013808210118138358,-6.458335085268711e-06,60.20066666666666,0.4763187541505751,1.2700000000000031,-0.0007621529845250074
S087,9577.0,9606.984375,W,0.6912031249999998,79.34435686167022,-724.97,891.52,1616.49,-5.26,36.62208838348356,1062.5,1087.9720052083333,0.502839161384853,0.3736027208888547,0.47966346528639797,65.09222765228273,0.3518156667896937,65.95452979136459,0.25833333333333336,137,0.08691250833333332,0.001137285745359195,7.369379169210921e-07,31.78533333333333,0.013349989596333572,9.652780396261837e-06,62.24266666666667,1.02567354563829,3.269999999999996,0.0015603476454936094
S087,9607.0,9636.984375,W,-0.7569791666666668,28.431972831721204,-82.15,100.21,182.36,-6.655,50.89745877856173,1140.625,1168.4163411458333,0.42555111326373,0.40385377708260806,0.4721221299150841,65.13805106410639,0.3563872938283735,65.58200972827838,0.340625,152,0.08747826666666668,0.000986656836099673,1.1670576082513023e-07,31.773333333333333,0.01273664878302826,-9.930558249391673e-06,63.778999999999996,0.42807592784458276,1.4000000000000057,0.00010079863845449142
S087,9637.0,9666.984375,W,-0.07346874999999985,28.30919951603377,-78.2,84.6,162.8,-7.17,68.1287011279544,1140.625,1167.2037760416667,0.37638056058846725,0.39197129111142254,0.4881394933116512,65.1386221781386,0.3601283109886628,65.58200972827838,0.35625,147,0.08824662500000001,0.0010376847230132063,-3.722114724966033e-08,31.761999999999997,0.014236104336041444,-1.8055560453439408e-05,61.549,0.7408479376138299,2.4499999999999957,-0.0006028126635234001
S087,9667.0,9696.984375,W,0.0800833333333333,28.898551066499085,-76.63,90.89,167.51999999999998,-7.545,34.097898445925516,1125.0,1102.4658203125,0.2732186624299299,0.36985914877228,0.4939466468461503,65.17762801059199,0.3760189439738023,65.58200972827838,0.43333333333333335,183,0.088203975,0.0009771135166269037,3.7734971173765964e-07,31.762,0.015143755588800408,7.083335254810844e-06,60.88433333333333,0.44636071611297673,1.490000000000002,-0.0007535765933096237
S087,9697.0,9726.984375,W,-0.34635937500000014,80.84247103308651,-791.26,639.22,1430.48,-6.279999999999999,115.813065134687,718.75,761.0514322916666,0.34414592098491525,0.40024813267313736,0.49926052087896294,65.0963530235829,0.3553608903654459,65.58200972827838,0.31666666666666665,145,0.08946321666666668,0.001053987082331765,6.675092956568194e-07,31.762666666666668,0.012092238098144444,-7.986113277482815e-06,60.090333333333334,0.5777743696480684,1.6799999999999997,-0.0009442016450199782
S087,9727.0,9756.984375,W,0.4918697916666666,27.43211151137712,-72.47,84.25,156.72,-6.15,199.60474588294,1125.0,946.6145833333334,0.30345235760055206,0.4465142774872938,0.4897107546949412,65.11198693458957,0.3460959835619845,65.58200972827838,0.3104166666666667,154,0.08994343333333334,0.0010253149250623247,3.6933950991197704e-07,31.750666666666667,0.015040685563570983,-6.458335085268711e-06,60.75233333333334,1.0320067290908952,3.219999999999999,0.0018437852223809731
S087,9757.0,9786.984375,W,-0.036380208333333185,28.367692992190808,-93.45,111.92,205.37,-5.18,13.734423744714055,1171.875,1168.408203125,0.21358993356949718,0.3994570968479872,0.5081967029496443,65.08797920743903,0.35467735382696725,65.58200972827838,0.31145833333333334,151,0.08998607499999998,0.0009424622641649926,-1.4761006608345973e-07,31.750666666666667,0.013148721948877068,-7.43055757122314e-06,60.760000000000005,0.4664046883698036,1.5500000000000043,-0.0007227085293805688
S087,9787.0,9816.984375,W,-0.04159895833333347,74.81553090975105,-751.73,849.18,1600.9099999999999,-6.335,296.9254902518846,468.75,632.080078125,0.2684510611307436,0.49132999596051086,0.4483174079420616,65.13330245095243,0.3272285125427077,66.58077800686922,0.30625,184,0.09010348333333335,0.0010279062861251304,3.608551326104497e-08,31.73866666666667,0.013349989596333572,3.541667627405422e-06,59.07899999999999,0.9234874119336982,2.770000000000003,-0.0015910073760328164
S087,9817.0,9846.984375,W,-0.20651562500000017,42.95477706013866,-195.55,470.98,666.53,-6.665,0.0,468.75,468.75,0.19982631347136326,0.48594726901577384,0.4550056757124636,65.14276822483572,0.32429102978740254,65.58200972827838,0.31979166666666664,165,0.0901675,0.0009975652359620407,-1.7456775568786716e-07,31.738000000000003,0.013266499161421317,8.472224520460029e-06,58.975,0.619073232070865,1.9000000000000057,0.000914618303661649
S087,9847.0,9876.984375,W,0.3161354166666668,30.644069331098347,-92.29,111.21,203.5,-5.255,0.0,468.75,468.75,0.24206145913796356,0.4558598027049788,0.4960247792169482,65.10360440269092,0.3367522995556104,65.58200972827838,0.29583333333333334,149,0.09072251666666667,0.0009968022788173958,4.6089682641515343e-07,31.742,0.011075498483890531,6.111112768856415e-06,57.294,1.4334750317555822,4.520000000000003,-0.0025769451434855535
S087,9877.0,9906.984375,W,-0.24557812499999987,29.310541458718763,-84.44,116.44,200.88,-5.915,0.0,468.75,468.75,0.20102817312229868,0.45916118417779567,0.4956308672764664,65.09092516197687,0.33479330627499804,65.58200972827838,0.28229166666666666,146,0.09095735833333334,0.0010456936118818706,-4.5701379584792576e-07,31.72666666666667,0.012736648783028263,-1.215278107443037e-05,54.48033333333333,0.875920404806028,2.3900000000000006,0.001136771141702241
S087,9907.0,9936.984375,W,-0.02819270833333342,62.01197076568454,-438.02,345.27,783.29,-5.1899999999999995,122.18722591385665,1093.75,1081.689453125,0.16039975560212744,0.4336124401627436,0.4945789016229418,65.12908035543119,0.34426306189951333,65.95452979136459,0.33645833333333336,183,0.09141637499999998,0.0009067468413923451,1.175918287738251e-07,31.720666666666663,0.013399834161494236,4.305556723512474e-06,56.918,1.2470429022291099,3.8200000000000003,0.0021894450383694226
S087,9937.0,9966.984375,W,0.16417708333333347,73.5968232051174,-709.35,780.74,1490.0900000000001,-6.24,0.0,1093.75,1093.75,0.2587026929379231,0.4330127018922193,0.49596352457447246,65.10709991070294,0.3504752265309474,65.58200972827838,0.3229166666666667,156,0.09076524166666666,0.001096060620250489,-3.6914050812188256e-07,31.711999999999996,0.010770329614268779,-6.180557232138874e-06,60.765999999999984,0.5426576575828753,2.029999999999994,0.000420555669638583
S087,9967.0,9996.984375,W,0.07754687499999975,38.14391343529477,-166.7,336.57,503.27,-5.55,0.0,1093.75,1093.75,0.1496378730654628,0.4717715118306743,0.48106056877833303,65.1265502255767,0.34180508398175385,65.58200972827838,0.321875,175,0.09166189999999999,0.0009885764714982824,3.424896762396024e-07,31.70733333333333,0.012364824660660675,-9.44444700641446e-06,61.324666666666666,0.4063228054419566,1.2000000000000028,0.0007011807457630055
S087,9997.0,10026.984375,W,-0.22447395833333353,27.005888073914182,-52.81,83.75,136.56,-7.8100000000000005,47.934099840792165,1171.875,1138.2242838541667,0.16532992583014122,0.42934361238988983,0.48543790189603264,65.15436760435506,0.3565558533646663,65.58200972827838,0.37916666666666665,184,0.092633325,0.0009806485197944262,2.3268170374395145e-07,31.67733333333334,0.015040685563571415,-1.840278276985232e-05,59.46333333333334,1.6251940055130514,4.5,-0.002853195218423182
S087,10027.0,10056.984375,W,-0.024937499999999908,27.586847250929086,-65.47,86.69,152.16,-6.455,0.0,1171.875,1171.875,0.12867851305568548,0.4083426338226542,0.4907300400650262,65.15972339848861,0.3521197227111023,65.58200972827838,0.38645833333333335,164,0.09260129999999998,0.00098673038870808,5.837892208629577e-08,31.67066666666667,0.012092238098145457,-6.319446158704619e-06,56.31899999999999,0.4361219248482389,1.2999999999999972,-0.0007126738044362528
S087,10057.0,10086.984375,W,0.39421875,47.52090803458321,-289.67,320.36,610.03,-6.0649999999999995,0.0,1171.875,1171.875,0.09636964965693294,0.43240962246141357,0.48594726901577384,65.15681227753636,0.3524043556581379,65.58200972827838,0.378125,183,0.093231125,0.0010445693415829346,-6.92207219023232e-08,31.637333333333334,0.016719914938646045,-1.2013892147866093e-05,57.38700000000001,0.7250064367530353,2.3999999999999986,0.0012342017236875336
S087,10087.0,10116.984375,W,-0.40781250000000013,31.35019637608368,-133.43,119.71,253.14,-6.505,0.0,1171.875,1171.875,0.11987768650679834,0.431803187870997,0.47461492980859993,65.18551608748895,0.35874885512184435,65.58200972827838,0.41875,183,0.09392495833333332,0.0010103784059766394,3.474725334940695e-07,31.625333333333337,0.012310790208412664,4.513890113359852e-06,58.830666666666666,0.348338277476874,1.25,-0.00030256952652168116
S087,10117.0,10146.984375,W,0.051911458333333195,62.050997125033454,-466.75,405.39,872.14,-6.35,0.0,1171.875,1171.875,0.07216126567549165,0.3630921887069453,0.501970941777399,65.12734734113205,0.36867326212592794,65.58200972827838,0.371875,163,0.09425583333333333,0.0008979761720421989,2.4039199229383544e-07,31.6,0.01527525231651914,-1.2430558927560208e-05,58.617,0.6367372561216552,1.8200000000000003,0.0010637155663290937
S087,10147.0,10176.984375,W,0.1149739583333331,88.226081772905,-812.73,965.67,1778.4,-5.04,0.0,1171.875,1171.875,0.1288302069478359,0.436561493377508,0.49891810032642964,65.10670238278054,0.35150368424445794,65.58200972827838,0.31979166666666664,166,0.09436250833333333,0.001073569435697522,8.106675376159794e-07,31.59733333333333,0.01412641340027776,1.5972226554965621e-06,60.086,1.2133606224037434,3.469999999999999,0.0021314589115285676
S087,10177.0,10206.984375,W,0.011593749999999818,34.62086012196925,-168.23,218.54,386.77,-6.175000000000001,178.02369804599675,1171.875,1097.3958333333333,0.10187052648664707,0.45825756949558394,0.49243848318568906,65.11592650753359,0.34980718329497984,65.58200972827838,0.3229166666666667,193,0.09467199166666666,0.0010134904661271175,1.4285268632071607e-07,31.59333333333333,0.011642832797715073,-4.652779039924771e-06,61.81000000000001,0.8065729973164247,2.940000000000005,0.0006834029631626966
S087,10207.0,10236.984375,W,-0.04393749999999987,31.249246032842038,-82.41,91.02,173.43,-5.975,0.0,671.875,671.875,0.07216126567549165,0.43597825625890513,0.49716972391226727,65.10746952508389,0.3501719200700271,65.58200972827838,0.31979166666666664,177,0.09445855833333332,0.0009953895116639323,3.023049865193657e-07,31.584666666666656,0.01359738536958047,-5.555557062596749e-07,64.04599999999999,0.3296725648275877,1.0,-0.0005371529234898345
S087,10237.0,10266.984375,W,-0.2217604166666667,102.91433662034216,-839.2,893.1,1732.3000000000002,-6.865,0.0,671.875,671.875,0.11162856937182342,0.4883528419738017,0.47174391115130815,65.1230490709289,0.3490172470209885,65.58200972827838,0.3125,179,0.09435179166666666,0.0012187077165029755,8.655330038880781e-07,31.55666666666667,0.018856180831640864,-2.2222228250386963e-05,65.78233333333334,1.3115301072496282,4.420000000000002,0.002352674249314845
S087,10267.0,10296.984375,W,0.3313385416666667,26.603481097208995,-51.93,85.01,136.94,-6.665,0.0,671.875,671.875,0.10204080746882048,0.45210613421764395,0.5057996968497839,65.08981442013949,0.3452299984077434,65.58200972827838,0.2875,171,0.09533363333333332,0.0012341921374819337,9.049047593600139e-07,31.53066666666666,0.013148721948877064,-7.43055757122314e-06,70.77199999999999,1.1463635258212534,4.150000000000006,0.002041111664798087
S087,10297.0,10326.984375,W,0.07285937499999999,29.058057069013714,-68.0,95.21,163.20999999999998,-7.025,55.56973144021524,1140.625,1128.857421875,0.07880950133074056,0.47028798616438794,0.5015589844978909,65.06894797749185,0.33343030624993286,65.58200972827838,0.2520833333333333,154,0.09594197499999997,0.0011332838013379505,-4.548488647050954e-07,31.51733333333333,0.012092238098144982,-1.1458336441606172e-05,69.329,2.5063484062143737,8.219999999999999,-0.0044663553782431035
S087,10327.0,10356.984375,W,-0.4327760416666664,29.07846581614436,-66.72,100.02,166.74,-7.48,32.80942286842269,1062.5,1080.3629557291667,0.06441510347391793,0.46639570816766984,0.49646209258613094,65.07992549395391,0.34635872743995777,65.58200972827838,0.27708333333333335,168,0.09544034999999998,0.001096346855470476,-1.7342799843424444e-07,31.48200000000001,0.019731531449265816,-2.444445107542716e-05,60.86366666666666,1.3076352277638024,4.350000000000001,-0.0022524658887982567
S087,10357.0,10386.984375,W,0.25772395833333356,43.948412781550495,-427.44,281.6,709.04,-7.115,0.0,1062.5,1062.5,0.07210109366946756,0.43240962246141357,0.5,65.07188840241491,0.3555602297666202,65.58200972827838,0.2875,170,0.09625134166666666,0.0009731747401831546,-1.9562353396905729e-07,31.463333333333335,0.01299572579307834,8.750002373589863e-06,61.36699999999999,0.9825617877093872,3.759999999999998,0.0017048268513527702
S087,10387.0,10416.984375,W,0.09967187499999984,79.18021871908886,-801.5,884.27,1685.77,-6.485,46.871922709862105,1062.5,1016.162109375,0.10204080746882048,0.46180503341658036,0.5038383486766586,65.05205662550148,0.35019583932697457,65.58200972827838,0.253125,160,0.09630476666666667,0.001136973443938871,1.0406908204998962e-06,31.463333333333335,0.01299572579307834,-7.361113107940681e-06,63.38133333333334,0.5416809228893176,1.5500000000000043,-0.0008725002366808378
S087,10417.0,10446.984375,W,-0.11993229166666677,28.384840137489455,-69.4,94.81,164.21,-5.91,0.0,968.75,968.75,0.11557806855349137,0.48246599621113195,0.5033050488741616,65.05364519185154,0.33434849985666365,65.58200972827838,0.23020833333333332,151,0.097190575,0.0010351415818017338,4.4698861951731095e-07,31.43933333333333,0.012364824660660674,-1.1944447684582993e-05,62.11866666666667,0.49729758584663336,1.740000000000002,-0.0006636807355904771
S087,10447.0,10476.984375,W,0.13804166666666676,35.590002161748515,-135.39,284.2,419.59,-7.3149999999999995,0.0,968.75,968.75,0.14282613750835507,0.4671953385630041,0.5018358224642132,65.05184710966451,0.3429348152334867,65.58200972827838,0.240625,160,0.09694504999999999,0.0009470144653066261,-6.756425443908808e-08,31.413333333333338,0.01719172927763647,-9.097224690002164e-06,60.37599999999999,0.24883193792866115,0.7099999999999937,0.000202638943858219
S087,10477.0,10506.984375,W,0.13907291666666677,29.70939786559717,-58.55,92.54,151.09,-7.75,0.0,968.75,968.75,0.11110243021644486,0.4788903188622631,0.5058640504127565,65.03288446044618,0.3430579459167887,65.58200972827838,0.21979166666666666,147,0.09706249166666665,0.0011237854851337142,5.114838627072103e-07,31.38,0.0267083008320136,-3.576389859046727e-05,60.92633333333333,0.559943350309257,2.1499999999999986,0.0009326738641150886
S087,10507.0,10536.984375,W,-0.06557812499999988,29.191275264036882,-95.63,96.12,191.75,-7.220000000000001,0.0,968.75,968.75,0.10642856726723118,0.4695306000411475,0.5020519959100075,65.03714580095672,0.32894943648514435,65.95452979136459,0.21666666666666667,143,0.09766026666666666,0.000981818989879951,2.296194199271426e-07,31.351333333333333,0.01543444920372128,1.6805560114356696e-05,65.02,0.9494665168749599,3.25,0.0014565976173496159
S087,10537.0,10566.984375,W,-0.22505208333333312,30.16184758234516,-95.84,98.87,194.71,-5.995,0.0,968.75,968.75,0.12401959270615269,0.49727992759500045,0.4930495647132131,65.04315230301137,0.3662947182247997,65.58200972827838,0.23541666666666666,156,0.09806589999999998,0.0010810776521601043,1.7068884838564632e-07,31.366666666666667,0.014681810363696512,-4.791667966489689e-06,64.39933333333333,0.544964422895865,2.1300000000000026,-0.0006700696262124633
S087,10567.0,10596.984375,W,0.24771874999999988,28.923868922426884,-67.55,103.28,170.82999999999998,-7.755,0.0,968.75,968.75,0.1529193630552463,0.4222940305804581,0.49879955720097513,65.04492849136288,0.3651290458956665,65.95452979136459,0.265625,149,0.09768161666666667,0.0009745959776862522,1.2894881970182776e-07,31.33866666666666,0.012310790208414246,-4.375001186795069e-06,63.51166666666666,0.2363342736229531,0.8200000000000003,0.0002147570027010106
S087,10597.0,10626.984375,W,-0.27804687499999986,38.79860357490185,-228.25,336.71,564.96,-7.390000000000001,31.390741039496472,1062.5,1059.8876953125,0.17116012950028858,0.42934361238988983,0.49448345663822657,65.00238553385704,0.36411981702133017,65.95452979136459,0.22291666666666668,143,0.09873839999999999,0.0010193326934813801,1.2813241323036389e-07,31.321333333333328,0.02171532996653676,-2.979167474817594e-05,64.088,0.46515517124217143,1.3500000000000085,-4.562501237657663e-05
S087,10627.0,10656.984375,W,0.3981614583333332,30.98057853493617,-85.77,101.41,187.18,-8.11,15.036364997386457,1062.5,1060.3922526041667,0.16232629604869594,0.4480753110527292,0.5010016009621792,65.02257642624254,0.36936417455810944,65.58200972827838,0.24166666666666667,154,0.098759775,0.0010562351968390715,1.831877667067515e-07,31.264666666666667,0.015434449203719974,-1.3472225876797097e-05,62.19000000000001,1.2023172071739914,3.75,-0.002066320004969619
S087,10657.0,10686.984375,W,-0.4311354166666667,31.298758018529995,-151.5,110.38,261.88,-6.81,0.0,953.125,953.125,0.18742764807756854,0.4098068121247973,0.4825863030904996,64.99771488161737,0.36824154388267827,65.58200972827838,0.22708333333333333,141,0.099624225,0.001047991829345533,5.413497562255189e-07,31.276666666666664,0.015776212754931976,1.6527782261225305e-05,60.50099999999999,0.19451392409456597,0.6000000000000014,2.211806155546261e-05
S087,10687.0,10716.984375,W,-0.028937499999999942,27.645983561817083,-63.53,90.82,154.35,-7.495,97.52086121433041,953.125,986.4176432291666,0.1356408400888169,0.49727992759500045,0.49749371855330987,65.01017548474128,0.37360867648152063,65.58200972827838,0.2125,153,0.10006176666666669,0.0010528590815277942,3.0264504737550056e-07,31.259999999999998,0.018439088914585382,-2.7291674070006488e-05,61.764333333333326,1.1273499407410672,3.1400000000000006,0.0020071880444846035
S087,10717.0,10746.984375,W,0.5050833333333332,97.50006429908848,-564.71,644.09,1208.8000000000002,-4.655,10.406460530465132,1109.375,1104.1910807291667,0.16697562509240682,0.49607837082461076,0.5016887713153334,64.99184359817802,0.3351850881220529,65.58963332722634,0.165625,124,0.10065936666666667,0.0010256477297569326,6.52220663037288e-07,31.208666666666662,0.017074997966487232,-1.0694447345498726e-05,63.798,0.7128880229975338,2.1199999999999903,0.0010142363862403383
S087,10747.0,10776.984375,W,-0.10483854166666698,41.777555388566775,-235.01,198.07,433.08,-6.645,15.068169152616742,1078.125,1089.6158854166667,0.1592592172022985,0.49975579974123363,0.4995657836784082,64.9716279973824,0.32283437924500424,65.58200972827838,0.13020833333333334,109,0.100680775,0.0010095201951298416,2.1045860743777423e-07,31.17666666666667,0.013984117975602398,-9.722224859544505e-06,64.81733333333334,0.41209168343410574,1.1199999999999903,-0.0007129168600577412
S087,10777.0,10806.984375,W,-0.37087499999999995,54.3349381562426,-428.66,363.83,792.49,-7.789999999999999,0.0,1078.125,1078.125,0.29292696461272083,0.48302792074808903,0.4973879253298062,64.97912274259,0.3580376191917173,65.95452979136459,0.16041666666666668,117,0.10085155,0.0011150308280491593,1.0199785752980079e-07,31.183333333333334,0.015776212754932475,-1.1250003051758943e-05,66.581,0.9303954356437208,3.2700000000000102,0.0014395490016137723
S087,10807.0,10836.984375,W,-0.03680729166666659,39.653529569997886,-167.51,305.66,473.17,-9.215,0.0,1078.125,1078.125,0.24258983158592792,0.4821814128837356,0.5007633062524538,64.9861830837421,0.3402938039656083,65.95452979136459,0.159375,118,0.101224975,0.0010705507341434112,3.9673296352347947e-07,31.176666666666673,0.01577621275493252,1.3888892656492174e-05,69.17733333333332,1.7489614696219642,4.820000000000007,0.003075417500927056
S087,10837.0,10866.984375,W,0.3451041666666667,172.3413707553799,-1247.63,821.46,2069.09,-9.629999999999999,6.40891229158033,1078.125,1074.7802734375,2.8067763905586105,2.223356915167293,2.0491971560528284,65.01373293756383,0.9660639332496969,77.80745465570763,0.04375,16,0.10361585,0.0054249079664236395,-1.3728606154678252e-07,31.197333333333336,0.017499206331208543,-4.375001186794931e-06,68.66533333333334,1.6576564447704143,6.049999999999997,-0.0029629174704094703
S087,10867.0,10896.984375,W,-0.10977604166666663,26.53984391442282,-90.98,103.49,194.47,-9.11,0.0,1062.5,1062.5,0.23437268517375387,0.032258047015004204,0.17780185112615923,64.95239737864051,0.15354076712757045,65.67343450741707,0.05416666666666667,41,0.10297540833333334,0.0010380333126946799,-2.440740679454403e-07,31.173333333333336,0.02005547860865601,-2.9097230115352354e-05,62.138999999999996,2.1281249180127246,5.93,-0.0037700357449098687
S087,10897.0,10926.984375,W,0.10356249999999996,23.889933676312157,-49.98,72.58,122.56,-8.835,0.0,1062.5,1062.5,0.27480856657660596,0.0,0.16862135013758556,64.96269135745476,0.1506317675729053,65.67343450741707,0.07083333333333333,44,0.10307147500000001,0.0012148412650939224,-2.0655018623865724e-07,31.136666666666663,0.01577621275493237,-1.430555943618684e-05,59.800666666666665,0.5650423779584048,1.6500000000000057,-0.0005629168193676276
S087,10927.0,10956.984375,W,-0.08707291666666664,24.106648010604527,-51.56,74.38,125.94,-8.515,16.141952540476115,1093.75,1081.3313802083333,0.2499913192937351,0.03225804701500421,0.1899835519196333,64.94802562425852,0.15414012235940922,65.3834841531101,0.053125,40,0.10341307500000001,0.0010653093773054843,3.7279111675106233e-07,31.13066666666667,0.014126413400277761,-3.472223164122962e-07,60.81466666666666,0.31575025292503317,1.25,0.0002777778531298438
S087,10957.0,10986.984375,W,0.2229999999999998,44.03071232058747,-226.94,247.07,474.01,-8.63,0.0,1093.75,1093.75,0.2957874817753449,0.0,0.16827350421923892,64.96756691424767,0.15692113544619812,65.3834841531101,0.08333333333333333,53,0.10453395000000001,0.0009234954777907656,1.1953779284336763e-07,31.13533333333333,0.01359738536958047,-1.0000002712674133e-05,61.70233333333333,0.5080989623641793,1.5600000000000023,0.0007974654941041379
S087,10987.0,11016.984375,W,-0.18133333333333335,47.197132179090666,-353.68,334.39,688.0699999999999,-8.545,7.53408457630837,1109.375,1103.6295572916667,0.3426671707802712,0.0,0.23290278357551294,64.96350091862291,0.19312792671675366,65.67343450741707,0.10520833333333333,70,0.10430977500000001,0.0010691533446493984,-3.055163589182837e-07,31.120000000000005,0.0198326330408576,-1.4791670679163821e-05,62.195,0.5268886662917202,1.6300000000000026,0.0007926738261376495
S087,11017.0,11046.984375,W,-0.06845833333333336,27.786223222248054,-83.08,155.25,238.32999999999998,-8.225000000000001,0.0,1109.375,1109.375,0.38947608817986357,0.0,0.24762544169571912,64.98062944203588,0.20687512372538935,65.3834841531101,0.14583333333333334,89,0.105142425,0.00101939263504059,-9.173830613560538e-09,31.098666666666666,0.012310790208412662,-4.86111242977216e-07,64.58366666666666,0.7923655862177642,2.5500000000000043,0.0008748960706640809
S087,11047.0,11076.984375,W,0.15145312500000005,23.00588871451563,-35.1,75.31,110.41,-7.035,16.786981473293334,1109.375,1106.2906901041667,0.37174367429049815,0.0,0.22838645595544604,64.97898209661425,0.1952836088467145,65.3834841531101,0.13229166666666667,57,0.10502499166666666,0.0010589054057204,3.552655043580467e-07,31.12533333333333,0.015216949614017447,9.097224690002164e-06,65.61533333333334,0.5235248057372469,1.6400000000000006,0.00029909730335755827
S087,11077.0,11106.984375,W,-1.4778124999999998,85.87881676626185,-771.93,766.91,1538.84,-8.21,0.0,1031.25,1031.25,0.8813454193810103,4.209524248777012,2.457882859503615,64.91106806137608,0.5553840695698302,70.39176088151227,0.027083333333333334,12,0.10121466666666666,0.004892400491805858,-7.406011991648216e-06,31.11733333333334,0.012092238098144446,-4.0972233336650955e-06,62.467999999999996,0.9013782040113166,3.229999999999997,-0.0009087502465142816
S087,11107.0,11136.984375,W,1.2430104166666667,19.77062704756878,-52.94,51.69,104.63,3.95,103.37093197353515,906.25,978.857421875,0.14282613750835504,0.4162028668676957,0.4756391898160715,64.74392785954235,0.3663631873444865,65.33758489567853,0.071875,58,0.09550437499999997,0.0008704676239671413,9.286439151052245e-08,31.125333333333334,0.015216949614017445,2.1180561301150067e-05,60.438333333333325,1.0464195568169052,3.280000000000001,-0.0018596185600093745
S087,11137.0,11166.984375,W,0.26901562500000004,18.073055379480135,-52.77,40.2,92.97,2.995,39.261232715282404,1078.125,1090.4703776041667,0.11987768650679834,0.34655421854146995,0.4559490540954719,64.75523671454569,0.35051349448805064,65.33758489567853,0.040625,30,0.09573914166666665,0.0011483392304819547,8.654140802447045e-07,31.13333333333333,0.013743685418725242,-9.513891469696917e-06,58.11666666666667,0.8325035869125263,2.4399999999999977,-0.0014693059541303042
S087,11167.0,11196.984375,W,-0.2756354166666667,16.766439687798332,-50.91,45.67,96.58,2.745,113.9232740920758,1078.125,1060.9944661458333,0.1595859170809115,0.3960402419753438,0.4714045207910317,64.7417116665074,0.3598895536401052,65.33758489567853,0.058333333333333334,45,0.09581384999999999,0.0010493822361275216,-8.239780881016933e-07,31.126666666666665,0.010434983894998796,3.541667627405422e-06,55.67666666666666,0.2781766025786904,1.0500000000000043,-0.00040125010884605936
S087,11197.0,11226.984375,W,0.09151041666666675,16.795395177755562,-48.85,44.82,93.67,2.6399999999999997,99.20772247574992,1046.875,1001.3346354166666,0.045595976308831845,0.2732186624299299,0.4422166387140533,64.76040226550371,0.3456372040268636,65.33758489567853,0.025,20,0.09433051666666664,0.0010009458691935154,-5.913430423565128e-07,31.144666666666662,0.017074997966488287,1.6527782261226535e-05,56.152333333333324,0.3143425237256679,1.2299999999999969,0.000548090426456821
S087,11227.0,11256.984375,W,0.30563541666666666,17.69472231557795,-50.5,84.55,135.05,4.09,60.61666424785977,984.375,1022.4609375,0.05589199343873464,0.20453835214941968,0.43180318787099703,64.76131755921152,0.3413790585639599,65.3834841531101,0.011458333333333333,11,0.09460796666666665,0.0010315535285297744,-8.170705341445686e-08,31.15466666666667,0.016069294390926428,-1.0902780735346402e-05,57.669333333333334,0.2930635122669182,1.0700000000000003,0.0002710417401914457
S087,11257.0,11286.984375,W,-0.5126927083333335,15.813032401753473,-40.11,39.24,79.35,3.035,38.44819203631878,1000.0,1016.0563151041666,0.06441510347391792,0.17399263633843817,0.4249068014642218,64.7643657742497,0.336725693295134,65.33758489567853,0.005208333333333333,5,0.09480001666666665,0.0010963825441220607,1.4900655083728086e-07,31.157333333333334,0.01590248058916988,2.9861119211458477e-06,57.37766666666666,0.05748526381217729,0.18999999999999773,8.989585771914604e-05
S087,11287.0,11316.984375,W,0.14847916666666663,16.064382765128762,-41.53,37.13,78.66,3.475,53.36222819563921,1031.25,1031.1197916666667,0.04559597630883184,0.16827350421923892,0.4433096406576333,64.73816052286487,0.3531837799860911,65.33758489567853,0.00625,6,0.09381820833333335,0.0010874977080116365,-8.366697148084103e-07,31.163333333333338,0.011925695880000147,-8.611113447026082e-06,57.52066666666666,0.16247940040372935,0.5799999999999983,3.881945497489656e-05
S087,11317.0,11346.984375,W,0.00502604166666667,16.472746678205244,-42.2,42.31,84.51,3.35,57.277561532155126,1000.0,1019.1975911458334,0.0,0.22838645595544602,0.4866935994259861,64.65447518652603,0.3817241869311635,65.33758489567853,0.004166666666666667,4,0.09388228333333332,0.0010140330302257884,3.1411466854239145e-07,31.17133333333334,0.015434449203720942,5.694445989161868e-06,58.437999999999995,0.34574942757243543,0.8999999999999986,0.0005925696051892377
S087,11347.0,11376.984375,W,0.1820677083333333,15.68187915389922,-42.81,42.32,85.13,3.3899999999999997,46.65656162029292,1046.875,1040.33203125,0.05589199343873463,0.36110844016106236,0.49984372557830503,64.5898954752701,0.3744251064622225,65.33758489567853,0.005208333333333333,5,0.09336989999999999,0.000955755350495097,-4.864910173858028e-07,31.198,0.014236104336041446,2.041667220504302e-05,58.76533333333332,0.020121851030382776,0.0799999999999983,-2.7291674070007297e-05
S087,11377.0,11406.984375,W,-0.06420833333333341,16.737584319501742,-40.83,38.08,78.91,2.9050000000000002,41.9943039629347,1031.25,1037.8743489583333,0.03225804701500421,0.3121091305537215,0.4928294424798503,64.65090482936166,0.3751174191542306,65.33758489567853,0.009375,8,0.09292155,0.0009762811313858334,-5.009467504738368e-07,31.21533333333333,0.014544949486180642,1.2916670170537425e-05,57.99599999999999,0.48107241312162863,1.2800000000000011,-0.0008456946738538072
S087,11407.0,11436.984375,W,0.0456770833333333,17.161081476941504,-40.57,41.35,81.92,2.4050000000000002,57.63748242553011,1062.5,1057.0556640625,0.07210109366946754,0.24578919095210203,0.4525966747557918,64.73648049906267,0.35291773518899644,65.3834841531101,0.0125,11,0.09281479999999999,0.0008582593780437249,-1.0508205975533322e-07,31.24266666666667,0.01412641340027776,1.5486115311988416e-05,57.37400000000001,0.05541359640617716,0.14999999999999858,7.722224317009642e-05
S087,11437.0,11466.984375,W,-0.21239062499999994,15.036677494252581,-39.4,32.65,72.05,2.785,60.82131593704443,1031.25,1015.5436197916666,0.045595976308831845,0.10152910775842669,0.42555111326373,64.75616932235202,0.3430763202827004,65.33758489567853,0.0020833333333333333,2,0.0931137,0.0010140688142330407,3.6306129640334715e-07,31.284,0.016451950239003737,1.715278243076744e-05,57.747666666666674,0.2231095894149082,0.6699999999999946,0.0003987153859362485
S087,11467.0,11496.984375,W,0.009348958333333268,13.875499418305445,-36.6,24.91,61.510000000000005,2.67,72.95843290608668,968.75,984.0657552083334,0.03225804701500421,0.11557806855349137,0.4568809849129202,64.71045026338557,0.3684449889746155,65.33758489567853,0.003125,3,0.09306032500000001,0.0009427300352566497,-2.3156972427564173e-07,31.323999999999998,0.01724335620850412,1.812500491672288e-05,58.742666666666665,0.4034512224406923,1.3399999999999963,0.0007253474189853027
S087,11497.0,11526.984375,W,0.2365833333333335,33.6693593672554,-177.44,397.38,574.8199999999999,2.315,42.96301524107652,1000.0,1014.2496744791666,0.07905694150420949,0.21137108216357317,0.4917185265728759,64.63173413816315,0.38915587339197233,65.33758489567853,0.005208333333333333,5,0.09370081666666666,0.0010458588494895295,5.401277506856977e-07,31.362,0.018330302779823796,2.4027784295731914e-05,59.46233333333335,0.07838721551092018,0.21999999999999886,-0.00012295142224159525
S087,11527.0,11556.984375,W,-0.07531770833333332,15.55622284727438,-37.17,33.68,70.85,3.55,48.724335628743006,1031.25,1040.0472005208333,0.07198059875565235,0.26999871398870695,0.4994256684071103,64.59253790199706,0.39248869929292923,65.3834841531101,0.008333333333333333,8,0.09374352499999998,0.0009684878674382068,-1.4427933601327498e-07,31.404,0.014742229591663674,1.8819449549546457e-05,59.17733333333334,0.3689709413430213,1.2199999999999989,-0.0006366668393735994
S087,11557.0,11586.984375,W,-0.033921875000000115,16.075261580432,-38.66,32.21,70.87,3.6,51.778688199484904,1031.25,1033.7076822916667,0.07210109366946754,0.17950549357115014,0.4979896651510171,64.59044645521837,0.39693834395424515,65.3834841531101,0.0010416666666666667,1,0.09389294999999999,0.0009470144653066319,3.5718759689333796e-07,31.437333333333335,0.013148721948877068,1.2430558927560208e-05,58.08733333333334,0.12912354118784453,0.5,-0.00023041672917120546
S087,11587.0,11616.984375,W,0.026942708333333402,14.34935189001177,-36.67,29.07,65.74000000000001,3.545,70.37667018895249,984.375,1006.2581380208334,0.07198059875565235,0.1356408400888169,0.4986690184185855,64.5787754000806,0.40375466058501,65.3834841531101,0.004166666666666667,4,0.09407439999999999,0.0009034265825179185,-2.2070795917642185e-07,31.482666666666667,0.0196525372973123,2.979167474817681e-05,57.596333333333334,0.134770999188335,0.509999999999998,4.920140223562307e-05
S087,11617.0,11646.984375,W,-0.11154166666666665,15.192995083341224,-39.73,36.83,76.56,3.0,40.11540688873121,1015.625,1016.5934244791666,0.11110243021644485,0.21358993356949718,0.49874408239318707,64.53510035523443,0.39789714728882675,65.3834841531101,0.46458333333333335,179,0.0945545833333333,0.0010924347469706813,3.2155217055994304e-07,31.520666666666664,0.014360439485691958,1.777778260030973e-05,58.79533333333334,0.26290344657729886,1.0200000000000031,0.0004218056699776677
S087,11647.0,11676.984375,W,0.105734375,15.380460096955055,-50.74,33.92,84.66,2.825,48.51085003902343,1046.875,1043.9371744791667,0.11987768650679835,0.14963787306546278,0.4999121016488799,64.54728968661863,0.4037562528755688,65.3834841531101,0.00625,6,0.0944479,0.0009710172964473938,-1.6378910693063912e-08,31.53933333333333,0.012364824660660675,4.305556723512474e-06,59.05933333333333,0.07873725646449423,0.3500000000000014,-0.00012298614447323793
S087,11677.0,11706.984375,W,-0.20122395833333334,16.39254351615421,-36.9,35.41,72.31,3.145,39.65336059673486,1046.875,1054.5166015625,0.09636964965693294,0.07880950133074056,0.4984306970103488,64.57820373599894,0.4061738935623872,65.3834841531101,0.005208333333333333,5,0.09518422499999998,0.0010711319360260918,8.409357749934302e-07,31.571999999999996,0.020231987873990928,2.7847229776266163e-05,57.809666666666665,0.3819378948933394,1.4499999999999957,-0.0006473960089507402
S087,11707.0,11736.984375,W,-0.07150520833333338,14.667319180855712,-33.38,29.14,62.52,3.5949999999999998,84.93316859164946,1015.625,1035.9212239583333,0.11110243021644486,0.09090593428863095,0.478890318862263,64.66514280683285,0.3880151696952045,65.3834841531101,0.00625,6,0.09541899999999999,0.0010055102436076927,-4.418425677741336e-07,31.605333333333338,0.013349989596333572,3.541667627405423e-06,57.11233333333333,0.063228861201898,0.19999999999999574,-0.00011017364099762392
S087,11737.0,11766.984375,W,0.2354166666666666,13.349276253529835,-31.59,23.7,55.29,3.665,86.70985392933251,1109.375,1080.7291666666667,0.03225804701500421,0.0,0.3630921887069453,64.81858642139295,0.29548716680121784,64.94613152451807,0.0,0,0.09594193333333331,0.0010712993880745406,5.321846061698685e-07,31.597999999999995,0.012220201853215311,-7.638890961070518e-06,57.361,0.13697566693881555,0.4799999999999969,0.0002360764529287249
S087,11767.0,11796.984375,W,-0.1857552083333334,15.83823093066248,-39.27,33.86,73.13,2.0,81.98636194277961,1046.875,1056.5022786458333,0.0,0.05589199343873463,0.3570714214271425,64.82373774362028,0.2899424304991936,64.94613152451807,0.0,0,0.09634735833333333,0.0008504785887549141,1.9262830746210483e-07,31.585333333333327,0.011175369742826569,-7.152779718093303e-06,57.406666666666666,0.12668420931153418,0.44999999999999574,-0.00020520838899966984
S087,11797.0,11826.984375,W,0.26908333333333323,15.818255474073478,-40.56,28.51,69.07000000000001,3.8,57.437050472765456,1046.875,1055.7861328125,0.032258047015004204,0.045595976308831845,0.3210226714043037,64.84999188889324,0.26301522860716847,64.94613152451807,0.0,0,0.09650745833333332,0.0009447654108810381,1.7011745066120036e-07,31.585999999999995,0.011999999999999745,-4.72222350320723e-06,56.73666666666667,0.153543334454985,0.5499999999999972,-0.000267430628100755
S087,11827.0,11856.984375,W,-0.006869791666666651,15.32584975022198,-37.82,30.22,68.03999999999999,2.8,59.708711539980904,1062.5,1044.23828125,0.03225804701500421,0.07880950133074055,0.36795317627458474,64.81288889066867,0.29905458671482765,64.94613152451807,0.0,0,0.09701978333333332,0.0009956226793932613,6.143308958145868e-07,31.603999999999996,0.017999999999999617,2.7708340849701246e-05,56.50366666666665,0.06112737157407949,0.259999999999998,1.4756948447521302e-05
S087,11857.0,11886.984375,W,-0.14741666666666658,43.42556791263324,-480.86,320.04,800.9000000000001,2.625,56.59710962743292,1000.0,1026.3509114583333,0.045595976308831845,0.11987768650679834,0.2914805954090255,64.8634675128152,0.24013651804300096,64.94613152451807,0.0,0,0.09684899166666666,0.0009525597399973839,-1.9790782278315604e-07,31.654000000000003,0.022150996967782492,3.194445310993332e-05,57.28733333333333,0.24236244666935466,0.8500000000000014,0.00042375011494957614
S087,11887.0,11916.984375,W,0.10516145833333335,15.040731845661563,-36.17,26.21,62.38,4.24,104.23749137205722,1046.875,1081.9254557291667,0.04559597630883184,0.15138251770487457,0.42425895361467886,64.75575461439014,0.3393537793419286,65.33758489567853,0.0010416666666666667,1,0.09665689166666666,0.000977271506080688,-4.168605731501117e-07,31.733333333333334,0.02314207327694588,3.493056503107701e-05,57.72366666666667,0.1001493329428061,0.2700000000000031,0.00017829865947771925
S087,11917.0,11946.984375,W,0.00408854166666662,14.59492786832959,-39.31,27.38,66.69,2.4400000000000004,49.411536727236715,1015.625,1020.2229817708334,0.05589199343873463,0.2900232719350102,0.4984306970103488,64.60880780176197,0.3844317472760123,65.33758489567853,0.004166666666666667,4,0.09636872499999999,0.0009496926868071559,7.808443958453797e-08,31.784,0.01724335620850305,1.6597226724507763e-05,57.81966666666667,0.05677342883975046,0.21000000000000085,-2.552084025630465e-05
S087,11947.0,11976.984375,W,-0.08588020833333335,16.45102621723743,-40.99,28.49,69.48,3.66,67.49967849717672,1015.625,1022.3958333333334,0.04564354645876384,0.16232629604869597,0.4506168611531925,64.72639560211215,0.3564346955757803,65.3834841531101,0.0020833333333333333,2,0.09734001666666667,0.0010969439440504174,3.441554753025916e-07,31.787333333333336,0.013399834161494234,8.333335593895119e-07,58.023999999999994,0.09329523031752465,0.3299999999999983,0.00010347225029086636
S087,11977.0,12006.984375,W,0.04124999999999993,14.967619431904772,-35.91,34.81,70.72,2.935,74.86689686361915,1015.625,1026.8961588541667,0.07902948640996106,0.06441510347391793,0.32177216534201475,64.85047701998143,0.2681049810382789,65.76473218982953,0.0020833333333333333,2,0.09745744166666667,0.001019348834598451,9.710289092417527e-09,31.803999999999995,0.015620499351812976,1.1458336441605777e-05,58.337999999999994,0.1573827605976381,0.5200000000000031,0.00023722228657288574
S087,12007.0,12036.984375,W,0.002640624999999967,16.009253240834905,-38.79,33.55,72.34,3.025,42.278814978261686,1031.25,1027.4169921875,0.0,0.09090593428863095,0.2943625410196677,64.86502245814187,0.24089037219257298,64.94613152451807,0.0,0,0.09769229166666667,0.001045395271303581,-2.4547293985268436e-07,31.876666666666665,0.036998498468031216,6.000001627604666e-05,59.038000000000004,0.1474991525399389,0.490000000000002,0.000179236159732032
S087,12037.0,12066.984375,W,0.011026041666666557,15.320971365506013,-34.32,28.05,62.370000000000005,3.955,34.9756334272445,1046.875,1043.0908203125,0.032258047015004204,0.14311453746329664,0.3487079325484613,64.8233743002125,0.2849315728589241,64.94613152451807,0.0,0,0.097777675,0.0007486973483157274,5.976889642168424e-08,31.951000000000008,0.02761038451983794,4.329862285661347e-05,58.660666666666664,0.16595046114896883,0.7299999999999969,-0.0002683334061234277
S087,12067.0,12096.984375,W,0.12711458333333334,16.227050788709903,-40.79,31.22,72.00999999999999,3.64,77.1308803834319,1062.5,1064.8600260416667,0.03225804701500421,0.13188915142607024,0.32177216534201475,64.84578104392455,0.2655449806078741,65.76473218982953,0.0010416666666666667,1,0.09838615,0.001084235319245783,1.2732164912154174e-07,31.99533333333334,0.018571184369579656,2.02083388151972e-05,57.23633333333334,0.42537421433629724,1.3999999999999986,-0.0007492015921228278
S087,12097.0,12126.984375,W,-0.050421874999999915,15.20191572971221,-34.02,26.37,60.39,3.465,50.69851844419474,1031.25,1039.1194661458333,0.0,0.16827350421923892,0.2810396589995006,64.86476154931177,0.2354091847332245,64.94613152451807,0.0,0,0.09834345,0.001008434428954112,4.5479960253895596e-07,32.04666666666667,0.01867856763482916,1.9513894182371557e-05,56.599,0.09951046846102829,0.28999999999999915,-0.0001592014320750411
S087,12127.0,12156.984375,W,-0.24877604166666664,14.539828847995746,-35.68,24.83,60.51,4.24,81.42290505918973,1046.875,1048.4293619791667,0.0,0.2021987428181051,0.2957874817753449,64.85116472067807,0.2486986894694999,64.94613152451807,0.0,0,0.09964559999999999,0.0010271557038735643,6.78069628382602e-07,32.116,0.02075250988836426,2.4791673391837744e-05,57.13033333333333,0.2504061145863296,0.7999999999999972,0.0003772570467819671
S087,12157.0,12186.984375,W,0.06799999999999998,16.628928181284966,-36.23,26.44,62.67,4.375,39.09450914957227,1062.5,1060.0992838541667,0.0,0.17116012950028858,0.3222624421139116,64.83895195913512,0.2659426773427791,64.94613152451807,0.0,0,0.09985901666666666,0.0010046654997504815,2.1286550913235336e-07,32.155,0.02906888370749686,4.295140054020131e-05,56.974333333333334,0.1271661205754982,0.4299999999999997,-0.00022746533948169958
S087,12187.0,12216.984375,W,0.08993229166666668,14.841433908627751,-34.16,25.3,59.459999999999994,3.785,46.02151947753343,1015.625,1014.2659505208334,0.032258047015004204,0.17399263633843817,0.28408104465197176,64.86184115533759,0.23694993793137234,64.94613152451807,0.0,0,0.09999779999999998,0.0011232506665922778,6.477671028014045e-07,32.25866666666666,0.041771867194188364,6.861112972307191e-05,56.90166666666666,0.27320423780672876,0.8200000000000003,0.00043725706305801414
S087,12217.0,12246.984375,W,0.040671874999999955,16.506642025404016,-36.73,29.05,65.78,4.135,47.12769882497025,1015.625,1014.7379557291666,0.032258047015004204,0.19982631347136331,0.2582808246366733,64.87145774676748,0.2194002644164403,64.94613152451807,0.0,0,0.10106490000000003,0.0010190007556425045,6.85373449808195e-09,32.35366666666666,0.03005365572142923,4.892362438249365e-05,58.208999999999996,0.38849581722330057,1.230000000000004,0.000698854356243044
S087,12247.0,12276.984375,W,-0.14209895833333328,15.54029776770565,-36.69,32.44,69.13,3.275,121.98210246057593,1000.0,971.1100260416666,0.05589199343873464,0.232399078305449,0.2699987139887069,64.85962782402683,0.2316862721922199,65.3834841531101,0.0010416666666666667,1,0.10128900833333333,0.001066075806371457,-3.7187661997521167e-07,32.431333333333335,0.01024152766382641,9.166669153286251e-06,59.485666666666674,0.2985708551676735,0.9500000000000028,0.0004020487201738072
S087,12277.0,12306.984375,W,0.1317968750000001,17.86827016233404,-40.88,32.08,72.96000000000001,4.699999999999999,70.96498587069105,1093.75,1085.5712890625,0.05589199343873463,0.2599996661322643,0.26836818808308854,64.85455861948178,0.23447019469202982,65.3834841531101,0.0010416666666666667,1,0.10201470833333334,0.0010924885536840003,4.0860145632635076e-07,32.48566666666667,0.03211264894433634,5.218751415676846e-05,58.50933333333334,0.5258829612079948,1.8400000000000034,-0.0009468058123930703
S087,12307.0,12336.984375,W,-0.10436458333333329,17.389243496711188,-42.1,31.51,73.61,4.359999999999999,30.014534537648448,1046.875,1050.6022135416667,0.0,0.27480856657660596,0.2617030727062426,64.85483056607558,0.2302945482625058,64.94613152451807,0.0,0,0.10294338333333333,0.0009508875782072728,2.410200306586453e-07,32.592666666666666,0.03641733408999405,6.194446124795554e-05,56.206,0.6161633982421659,1.8800000000000026,-0.001047639173079203
S087,12337.0,12366.984375,W,0.13342708333333342,15.264157623092073,-35.03,28.15,63.18,4.175,46.22814105814295,1031.25,1030.6722005208333,0.04559597630883184,0.3353843152100123,0.28256636388643286,64.82518775456325,0.2525521443611029,64.94613152451807,0.0,0,0.10378670833333334,0.0010318607496155759,3.9528982077089254e-07,32.68233333333333,0.021084486134492153,7.1180574864525365e-06,56.40366666666667,0.4250292800371397,1.4500000000000028,0.0007651043742145121
S087,12367.0,12396.984375,W,-0.16490104166666664,16.917540397918582,-39.75,26.14,65.89,3.86,47.730512030877655,1046.875,1053.5888671875,0.032258047015004204,0.3295340117962872,0.28256636388643286,64.8276134487569,0.2485649584136517,64.94613152451807,0.0,0,0.104245725,0.0009102589463306552,2.4102154975627986e-07,32.66199999999999,0.01326649916142228,1.0069447175957441e-05,57.44500000000001,0.11268688181564632,0.4200000000000017,8.229168898971515e-06
S087,12397.0,12426.984375,W,0.18777604166666675,17.05247864747994,-39.72,27.86,67.58,5.13,43.144264494750196,1046.875,1045.8577473958333,0.03225804701500421,0.3013838885273878,0.28103965899950056,64.83802410313221,0.2466550931493507,65.3834841531101,0.0010416666666666667,1,0.10450192500000002,0.0010126631569159583,1.2982360292523984e-07,32.74766666666666,0.025256462319353655,3.8229177036996455e-05,57.184333333333335,0.17275576851600544,0.5200000000000031,-0.0003078820279627899
S087,12427.0,12456.984375,W,-0.19907291666666668,17.7616849119488,-39.45,27.09,66.54,4.005,24.16637458844002,1015.625,1022.4853515625,0.03225804701500421,0.24016912082368586,0.318518434404597,64.83012653352229,0.26713351372575456,65.3834841531101,0.0010416666666666667,1,0.10515309166666667,0.0009977353272606346,-1.0952976061462665e-07,32.82600000000001,0.016852299546353637,2.5694451414512343e-05,57.19666666666667,0.30716264240445795,0.8299999999999983,0.000531875144280367
S087,12457.0,12486.984375,W,0.06519270833333325,17.941120324676778,-39.26,30.16,69.42,4.15,20.179666327902172,1015.625,1004.8828125,0.0,0.1356408400888169,0.3650532685634918,64.81024040640834,0.29830934205013826,64.94613152451807,0.0,0,0.10545198333333333,0.0009547525856064607,9.781816889598781e-08,32.88933333333333,0.031825915366079476,4.888890215085181e-05,58.269,0.3450057970527454,1.1799999999999997,0.0006193404457846265
S087,12487.0,12516.984375,W,-0.04514062499999992,17.733342976021884,-37.81,25.14,62.95,4.445,34.73872788504116,1031.25,1030.5826822916667,0.0,0.1356408400888169,0.3736070773739289,64.80260922266962,0.3061256832955244,64.94613152451807,0.0,0,0.10529179166666666,0.0011796548287234508,8.629609545792525e-07,32.95333333333333,0.017191729277636906,1.6319448871379073e-05,59.31766666666667,0.14157879627809988,0.5200000000000031,0.0001346875365363319
S087,12517.0,12546.984375,W,-0.06679687500000002,17.922881368878915,-39.82,40.27,80.09,4.195,28.334984030042094,1031.25,1027.7750651041667,0.0,0.2795007329547138,0.26339134382131846,64.85280593883776,0.23053241156232093,64.94613152451807,0.0,0,0.10595358333333332,0.0009049819112679694,5.8022585184078086e-08,33.02466666666667,0.030955164709982982,5.006945802665247e-05,58.71000000000001,0.2423771166316382,0.8500000000000014,-0.0004277778938199582
S087,12547.0,12576.984375,W,0.060140624999999955,15.400971997565867,-34.43,25.3,59.730000000000004,4.16,63.28726950483403,1000.0,985.1888020833334,0.0,0.2716154572133593,0.26339134382131846,64.85477644766634,0.22970326486224654,64.94613152451807,0.0,0,0.10695668333333333,0.000949516727808886,3.654341269081299e-07,33.13033333333333,0.025882211823737244,4.1562511274549986e-05,58.316333333333326,0.1973065860251222,0.7000000000000028,0.00023934034270300128
S087,12577.0,12606.984375,W,0.03103645833333326,16.120353504276434,-33.81,31.24,65.05,3.8200000000000003,45.62038238592391,1007.8125,1009.4319661458334,0.03225804701500421,0.3027578675920559,0.2263462809256845,64.86389786897263,0.21105665152104833,65.3834841531101,0.0010416666666666667,1,0.10742621666666666,0.000999576011644718,1.7583728728225062e-07,33.161666666666655,0.016141733350404423,1.6631948956148826e-05,59.38700000000001,0.20874466061035754,0.7800000000000011,0.0003654514880239498
S087,12607.0,12636.984375,W,0.241296875,15.745438692529293,-50.05,38.07,88.12,3.92,25.301941761444233,1000.0,1008.2275390625,0.0,0.37080407187923675,0.1874276480775686,64.8542061756572,0.19807319862180503,64.94613152451807,0.0,0,0.107479575,0.001053138497242887,3.312051679701527e-07,33.19233333333333,0.0212419919551402,1.0798614040422296e-05,59.63866666666666,0.07762015774841492,0.29999999999999716,-0.00011125003017850139
S087,12637.0,12666.984375,W,-0.3238541666666665,16.760395230137007,-39.02,26.79,65.81,3.9050000000000002,35.183908391024,1046.875,1050.1953125,0.03225804701500421,0.3660254217605657,0.26836818808308854,64.8227332087957,0.2452230439679597,65.3834841531101,0.0010416666666666667,1,0.10815190000000001,0.0010689274718146235,-7.556811945749774e-07,33.24066666666667,0.01526069752301423,1.888889401283104e-05,58.687000000000005,0.34441399506988646,1.1199999999999974,-0.0006007293296249262
S087,12667.0,12696.984375,W,0.08592187499999993,17.26003355189805,-36.82,27.51,64.33,4.605,37.4565579308689,1046.875,1034.6028645833333,0.05589199343873463,0.4030913530316532,0.265653593232281,64.8082838769813,0.2518417239755321,65.76473218982953,0.0010416666666666667,1,0.10791705,0.0009130262852185605,4.0378309564428675e-07,33.31700000000001,0.03426854728950856,5.8784738168602197e-05,57.771,0.3018868441430773,0.8900000000000006,-0.0005421182026145297
S087,12697.0,12726.984375,W,-0.054046874999999904,16.739019315157606,-38.25,24.62,62.870000000000005,4.109999999999999,49.63302449095492,1031.25,1032.1044921875,0.0,0.45161265821005897,0.1821904480893551,64.81018507197014,0.21241297114265845,64.94613152451807,0.0,0,0.108109175,0.0009569370639571876,3.6770170564824896e-07,33.43633333333333,0.033314994955559625,5.5173626077917356e-05,57.959666666666664,0.47411309011903735,1.4499999999999957,0.0008286460581179632
S087,12727.0,12756.984375,W,0.20139583333333327,16.94206813642152,-39.0,25.7,64.7,4.66,23.08876268456171,1015.625,1017.6920572916666,0.0,0.45011452053585455,0.23825719937822562,64.79017858444153,0.23815400375688803,64.94613152451807,0.0,0,0.10858946666666666,0.0010083966806547677,6.951434177363802e-08,33.537,0.035133080327994365,5.954862726470919e-05,59.06399999999999,0.1954072670091886,0.5,0.0003437500932481818
S087,12757.0,12786.984375,W,-0.027999999999999966,17.776289925065917,-39.02,32.47,71.49000000000001,4.81,42.83037735922938,1015.625,1033.0810546875,0.0,0.4405535797121869,0.22008274564480418,64.80488851408133,0.23131798637553694,64.94613152451807,0.0,0,0.10935805,0.0009947817084667344,-1.8180864306875063e-07,33.626333333333335,0.023163668870787784,3.5659731895541804e-05,59.080666666666666,0.368138862689369,1.0500000000000043,-0.000557569595694876
S087,12787.0,12816.984375,W,-0.22324479166666675,17.66578437092667,-37.07,28.45,65.52,3.675,28.615109700241828,1015.625,1022.2819010416666,0.05581428468591172,0.42049155882332134,0.29720193985833193,64.78394122730133,0.264812620982978,65.3834841531101,0.003125,3,0.10973167499999999,0.001008151883088553,6.808094294730421e-07,33.684666666666665,0.023767391293302048,2.4444451075427043e-05,58.330666666666666,0.03714236873915764,0.11999999999999744,1.618055994481292e-05
S087,12817.0,12846.984375,W,0.09829166666666672,16.750118643806594,-36.18,27.65,63.83,3.73,29.71283907648922,1031.25,1026.9124348958333,0.04559597630883184,0.47461492980859993,0.23825719937822562,64.76822945616503,0.24237322505035064,65.3834841531101,0.0010416666666666667,1,0.110372175,0.0010149112741392706,5.323601704536035e-07,33.69866666666666,0.02513076909996119,-1.9444449719089827e-05,58.357666666666674,0.11589315002286411,0.29999999999999716,0.0001680903233751957
S087,12847.0,12876.984375,W,0.0014218750000000242,17.25805159040329,-36.17,24.63,60.8,4.275,24.41926485370548,1015.625,1014.1764322916666,0.0,0.4849190493010148,0.232399078305449,64.75645321644505,0.2408668228749234,64.94613152451807,0.0,0,0.110457575,0.001005888659034885,-2.1655800145345104e-07,33.69166666666666,0.03163155948662065,5.121529167081647e-05,58.45466666666667,0.03159465496286045,0.10000000000000142,4.513890113359347e-06
S087,12877.0,12906.984375,W,-0.06054166666666679,17.364510815235498,-37.95,24.65,62.6,3.66,40.00093127861993,1031.25,1024.5930989583333,0.032258047015004204,0.4671953385630041,0.21137108216357317,64.7866664445805,0.23124878089439582,65.00769185258002,0.0,0,0.11068174166666665,0.0009583460708936114,3.552576918559282e-07,33.76466666666666,0.01146976702272425,8.333335593895802e-06,58.35066666666667,0.1127514473915484,0.30000000000000426,-0.0001506944853229416
S087,12907.0,12936.984375,W,0.21218229166666655,17.9217497221166,-37.65,26.26,63.91,5.305,22.02898355043171,1015.625,1014.1276041666666,0.03225804701500421,0.4890289414293959,0.15612494995995993,64.77648698694334,0.21277992627402942,65.3834841531101,0.0010416666666666667,1,0.11115144999999998,0.0010992658675225044,4.892709660565776e-07,33.834,0.031155523854793584,5.0000013563370495e-05,58.495333333333335,0.032427697352040846,0.14999999999999858,3.875001051161271e-05
S087,12937.0,12966.984375,W,-0.14666666666666675,23.16077157684351,-65.14,131.81,196.95,3.91,49.97146639989481,1015.625,1015.1692708333334,0.032258047015004204,0.49859176687947826,0.1462753717308556,64.75289837479797,0.21327305600793658,64.94613152451807,0.0,0,0.11143964999999999,0.0010906214868138283,6.696342962332633e-07,33.937999999999995,0.028095076674274924,4.6666679325815486e-05,58.936,0.33696290597037537,1.1499999999999986,0.0005784029346796155
S087,12967.0,12996.984375,W,0.04947395833333338,18.91703980499319,-40.46,27.26,67.72,4.99,27.59933789322126,1015.625,1018.0582682291666,0.0,0.47426844250440653,0.17677362623014656,64.79059324913015,0.21618223586042382,64.94613152451807,0.0,0,0.11212273333333336,0.0010954420700744012,5.417193309785516e-07,34.00966666666666,0.018162843634433785,9.479169238055483e-06,60.029999999999994,0.06718134661744543,0.3200000000000003,9.722224859551382e-07
S087,12997.0,13026.984375,W,-0.10720312499999993,18.58133904397295,-41.5,26.58,68.08,3.8449999999999998,36.0867263103194,1015.625,1019.23828125,0.045595976308831845,0.4554788002750513,0.24069263118827158,64.78581607192922,0.23960570560018013,65.39113089708727,0.0010416666666666667,1,0.11177057500000001,0.0010158105848902166,-8.228626364102199e-08,34.034666666666666,0.02860458393723322,4.388890079451501e-05,59.91366666666668,0.2145146977611452,0.7899999999999991,-0.0003180903640653103
S087,13027.0,13056.984375,W,-0.14260416666666664,20.700623327208838,-44.7,30.25,74.95,4.6899999999999995,28.21681260238135,1046.875,1042.529296875,0.0,0.4990866223384697,0.1496378730654628,64.74973482980415,0.2140042134615535,64.94613152451807,0.0,0,0.11186657500000001,0.0011749908273578152,1.0336150807332574e-06,34.13066666666666,0.03305887004857825,5.548612616268328e-05,58.703,0.17656254793509643,0.8299999999999983,-0.00028961813411950186
S087,13057.0,13086.984375,W,0.24970312500000008,19.123266287577948,-42.55,28.43,70.97999999999999,4.88,26.641040200894377,1000.0,1005.1839192708334,0.0,0.47729594061814057,0.1821904480893551,64.78534660347557,0.2201108831181703,64.94613152451807,0.0,0,0.11308320833333335,0.0009972875370710373,1.4417907556940992e-07,34.233333333333334,0.023570226039552254,3.708334339283524e-05,58.23366666666667,0.05665588132655564,0.21999999999999886,3.69097322346265e-05
S087,13087.0,13116.984375,W,-0.17040624999999998,19.425125145498914,-40.71,29.2,69.91,3.505,40.79418654381885,1015.625,1023.681640625,0.0,0.4926499701162637,0.16827350421923892,64.76555320586118,0.21455676504882792,64.94613152451807,0.0,0,0.11389421666666667,0.0009375025971815852,2.7813115183679127e-07,34.30766666666667,0.02974147870492494,4.9826402405164224e-05,58.69833333333334,0.16984470030655135,0.5499999999999972,0.0003055209162111861
S087,13117.0,13146.984375,W,-0.009651041666666653,19.809484279766384,-44.19,29.01,73.2,4.855,35.99542841759558,1031.25,1034.5458984375,0.0,0.49152540343528756,0.19741988090108856,64.75858187432635,0.2282877413162724,64.94613152451807,0.0,0,0.11388359166666667,0.001040064208721694,2.973718254589368e-07,34.37666666666667,0.01776388345929837,1.0763891808781665e-05,58.744666666666674,0.22336417697463343,0.7199999999999989,-0.0003833334373191826
S087,13147.0,13176.984375,W,-0.04740624999999987,19.843353159852484,-42.98,30.66,73.64,4.955,51.081583413150796,1031.25,1037.3372395833333,0.0,0.4987440823931871,0.17399263633843817,64.74493156271646,0.2190972519818703,64.94613152451807,0.0,0,0.11409693333333333,0.0009580759863160923,3.173915791535316e-07,34.389333333333326,0.015040685563571049,1.9652783108935758e-05,58.184,0.11737688585634395,0.4299999999999997,-0.00015930559876996313
S087,13177.0,13206.984375,W,0.2596510416666667,20.388315187388862,-46.12,29.11,75.22999999999999,5.09,25.033462170549992,1015.625,1023.8932291666666,0.03225804701500421,0.48594726901577384,0.21358993356949718,64.76206044655952,0.23386616436759253,64.94613152451807,0.0,0,0.11482268333333331,0.0009592521825475438,-3.869736292788722e-07,34.444,0.01872609587358514,2.4652784465275196e-05,57.82833333333333,0.07874360644240015,0.2700000000000031,9.788197099662973e-05
S087,13207.0,13236.984375,W,0.010072916666666742,19.822899901768068,-39.63,27.57,67.2,4.33,47.92415104340007,1031.25,1035.3597005208333,0.0,0.4759755606908826,0.11110243021644486,64.68885145334498,0.1920225170802447,64.94613152451807,0.33645833333333336,151,0.11484403333333333,0.0010759201405721956,5.115062151438314e-07,34.514,0.029507061301773857,4.9236124467263625e-05,57.95633333333333,0.08292499958128119,0.22999999999999687,-0.00014079864930518842
S087,13237.0,13266.984375,W,-0.010140625000000103,20.2682538748772,-41.5,28.16,69.66,4.57,24.72450198212067,1031.25,1034.8958333333333,0.0,0.4995657836784083,0.15612494995995993,64.72873919940277,0.21092255063257667,64.94613152451807,0.4552083333333333,155,0.11589014999999998,0.0009055521395811519,-2.913386206973254e-07,34.58666666666668,0.024267032964268968,3.6736121076422416e-05,57.91899999999999,0.05940538696111695,0.240000000000002,-9.288196964029177e-05
S087,13267.0,13296.984375,W,0.052197916666666594,31.668975464008867,-245.01,274.14,519.15,4.035,53.40700782896432,1046.875,1051.6927083333333,0.04564354645876384,0.48594726901577384,0.10172129679778086,64.70565048814882,0.20063209827344033,66.19667665374146,0.375,156,0.115698,0.0010104664269534162,3.6361728613750127e-07,34.64599999999999,0.02430363484474302,3.90277883647406e-05,57.511,0.15339165557487175,0.44000000000000483,-0.0002699653510105666
S087,13297.0,13326.984375,W,-0.18093750000000003,20.491771645291198,-43.22,30.84,74.06,3.915,29.397206626515562,1031.25,1035.0016276041667,0.03225804701500421,0.4992659542323666,0.15612494995995993,64.7259370995016,0.20902533664604106,64.94613152451807,0.446875,156,0.11621039999999998,0.0011060866105328277,2.3685162675011512e-07,34.69666666666665,0.023570226039552323,-2.1666672544129165e-05,57.19766666666666,0.044172641105351546,0.1599999999999966,-4.913195777234125e-05
S087,13327.0,13356.984375,W,-0.13229166666666664,23.086232277916864,-59.44,41.85,101.28999999999999,5.140000000000001,45.91747709691034,1031.25,1027.8157552083333,0.0,0.49789487400008003,0.18257121422581626,64.7133595952609,0.21613628675765784,65.39113089708727,0.42291666666666666,159,0.11754475833333335,0.0010648368106258746,8.803767579147013e-07,34.69833333333333,0.02646801004147423,3.725695455104005e-05,57.49733333333333,0.2861227397852579,0.75,0.0005019445806056266
S087,13357.0,13386.984375,W,0.33785416666666673,23.431648502425787,-70.71,69.86,140.57,5.68,33.72364412257098,1046.875,1052.0182291666667,0.0,0.4714045207910317,0.11987768650679834,64.68203845788207,0.18969519339484733,64.94613152451807,0.31979166666666664,144,0.11790771666666666,0.0009398024276705997,-3.2661814415639716e-07,34.766,0.01959591794226578,2.750000745985495e-05,57.867,0.007810249675905496,0.030000000000001137,6.284723927060731e-06
S087,13387.0,13416.984375,W,0.07776041666666668,26.908184446234937,-125.87,125.57,251.44,5.39,90.62196536482472,1046.875,1076.3590494791667,0.03225804701500421,0.43180318787099703,0.1064285672672312,64.65181599631313,0.1737480327027017,64.94613152451807,0.2375,130,0.11808918333333333,0.0009727336050475933,4.4641027734653736e-07,34.82066666666666,0.019988885800753427,3.173611972008552e-05,57.616,0.2137381575666823,0.5499999999999972,-0.00037243065658383644
S087,13417.0,13446.984375,N1,-0.16198437499999999,24.035501244464875,-49.18,45.39,94.57,4.13,93.59116839579468,1046.875,1016.9596354166666,0.032258047015004204,0.4535689874637472,0.1067949667847486,64.67098231294112,0.18676191418067117,65.39113089708727,0.284375,119,0.11882559166666666,0.0009983238160022158,3.6648208726185217e-07,34.856333333333346,0.01702612371882706,1.0451391724009496e-05,57.45633333333333,0.11870083777669335,0.3999999999999986,-0.00015753476495626204
S087,13447.0,13476.984375,N2,-0.017015624999999947,23.463223033162397,-81.22,61.67,142.89,5.95,37.084952008356034,1093.75,1087.8987630208333,0.032258047015004204,0.3630921887069453,0.09126331714087296,64.6247900844206,0.15154167052774353,65.39113089708727,0.15625,102,0.11885759166666668,0.00105343339843132,-1.3957490765378337e-07,34.92399999999999,0.02537715508089993,4.104167779993541e-05,56.517,0.35374331560233513,1.25,-0.0006327432271981409
S087,13477.0,13506.984375,N2,-0.023989583333333394,21.332001147041773,-47.36,41.29,88.65,3.975,30.05041742583237,1078.125,1073.8118489583333,0.06441510347391795,0.34546761536197407,0.07902948640996107,64.62016491353452,0.1440308332798866,65.39113089708727,0.13958333333333334,82,0.11899634166666666,0.0010055536907249462,7.399626573249413e-07,34.979000000000006,0.012741009902411646,-1.2152781074434371e-06,55.476,0.14472042012100436,0.6000000000000014,-0.0002496528455004464
S087,13507.0,13536.984375,N1,-0.22822916666666668,21.091536051458714,-45.06,30.02,75.08,4.34,44.86378327485857,1031.25,1043.017578125,0.0,0.4535689874637472,0.12447371850002002,64.66804379122033,0.18637922847802765,65.39113089708727,0.28020833333333334,108,0.11980737500000001,0.0009903854221337295,3.554022231451353e-07,35.018,0.01833030277982354,2.0277783278478894e-05,55.519000000000005,0.2835060258030983,0.9699999999999989,0.0004905209663956623
S087,13537.0,13566.984375,W,0.058661458333333506,22.104021606419412,-49.08,58.36,107.44,5.35,33.439657393246286,1031.25,1037.1744791666667,0.03225804701500421,0.3660254217605657,0.11162856937182343,64.6225622439986,0.16288754973748334,65.76473218982953,0.15625,76,0.12020220000000001,0.0009445603792241154,-1.5727565030263964e-07,35.06933333333334,0.02159217965427071,2.9097230115353794e-05,56.81633333333333,0.21487179640168885,0.9299999999999997,0.00034545148259860077
S087,13567.0,13596.984375,W,0.1745052083333333,21.32725478664209,-45.53,34.85,80.38,4.165,42.071345041225875,984.375,995.458984375,0.03225804701500421,0.46393241957267395,0.139563897900647,64.67157866535725,0.18939710621401282,65.39113089708727,0.29583333333333334,115,0.12037291666666668,0.0009637059249180878,-3.1570928703051465e-07,35.124,0.01645195023900381,-1.187500322130094e-05,58.15,0.463148644245739,1.5300000000000011,0.0008218057784846392
S087,13597.0,13626.984375,W,-0.028354166666666635,21.158017159075484,-43.53,30.31,73.84,5.824999999999999,35.50848558881624,1000.0,997.7376302083334,0.0,0.4695306000411475,0.1428261375083551,64.67498384564585,0.19258651418624032,64.94613152451807,0.30833333333333335,124,0.12033025000000001,0.001107150232579123,8.459260107221186e-07,35.129666666666665,0.018526257642119175,2.2881950651568086e-05,59.625666666666675,0.4738542907781773,1.4500000000000028,0.0008508682863683513
S087,13627.0,13656.984375,W,-0.16953645833333342,22.43744339927225,-46.81,35.26,82.07,5.74,33.951993596204794,1031.25,1039.3147786458333,0.055891993438734626,0.44111108924573134,0.12447371850002002,64.65814255989714,0.1871292886860125,65.82552696332935,0.25625,112,0.12133341666666668,0.0009461296914564908,1.3513067901765322e-07,35.207333333333324,0.0334597602435462,5.451390367673228e-05,59.806333333333335,0.29361520547970393,1.0200000000000031,-0.0005260070871329983
S087,13657.0,13686.984375,W,0.30942187500000007,23.282559863132636,-46.41,30.6,77.00999999999999,5.855,30.01612318310498,1046.875,1045.7194010416667,0.0,0.42163187438807326,0.08523227047636099,64.65105796079159,0.1648116612928618,65.39113089708727,0.22604166666666667,97,0.12140815,0.0010179939476735594,1.6425221469515294e-07,35.272666666666666,0.017688665548562042,2.5138895708250228e-05,58.126333333333335,0.5473236905362513,1.75,-0.0009783683209549478
S087,13687.0,13716.984375,N1,-0.05624479166666676,23.080969192543897,-48.81,34.57,83.38,5.32,43.663690596639874,1015.625,1036.1979166666667,0.0,0.3960402419753438,0.07880950133074055,64.63639167033098,0.15941614169949317,64.94613152451807,0.19166666666666668,86,0.1216323,0.0009047967782878083,1.4789326928528327e-07,35.333999999999996,0.02075250988836362,2.7500007459853865e-05,57.16,0.16178174598307848,0.4799999999999969,-0.000155833375605842
S087,13717.0,13746.984375,N1,0.03376562499999993,24.1018897520952,-54.73,34.71,89.44,5.775,28.524512962680557,1046.875,1048.3968098958333,0.16862135013758553,0.43180318787099703,0.2263462809256845,64.62933555592717,0.23502255076353545,65.3834841531101,0.22395833333333334,111,0.12241157500000002,0.001105210543007528,6.669096861191631e-07,35.40733333333333,0.020483055327649956,2.9305563505198522e-05,57.33299999999999,0.09256169113983767,0.2700000000000031,6.815974071173649e-05
S087,13747.0,13776.984375,N1,0.042552083333333414,24.183866196620368,-50.78,36.31,87.09,5.67,29.43588507799296,1062.5,1062.1826171875,0.13188915142607024,0.3146988612370386,0.1529193630552463,64.59819284106743,0.1693812315374213,65.3834841531101,0.11666666666666667,85,0.12343636666666667,0.001059705925664703,1.2094794947589626e-07,35.459999999999994,0.020330600909302225,3.097223062397651e-05,57.37066666666667,0.14997629442311577,0.5400000000000063,-0.00017319449142645836
S087,13777.0,13806.984375,N2,-0.2551614583333334,22.593709457662428,-54.06,39.55,93.61,4.77,47.968728351622644,1062.5,1066.2434895833333,0.12011279421166311,0.27638539919628335,0.17468970506459608,64.58274952023105,0.16370015402949128,65.39113089708727,0.08125,45,0.12338299999999999,0.0009830278225971011,-1.9292843775185386e-07,35.49400000000001,0.013564659966250772,8.958335763437281e-06,56.43833333333332,0.2415792945505794,0.7800000000000011,-0.00042510428198358344
S087,13807.0,13836.984375,W,0.03737499999999995,24.09747400716601,-87.52,50.61,138.13,5.175,36.952532995821336,1062.5,1069.2220052083333,0.1592592172022985,0.22838645595544604,0.1692379775805524,64.5814544240447,0.15914712806623454,65.39113089708727,0.07083333333333333,47,0.12406618333333333,0.0010049933248810923,4.792601126465131e-07,35.52633333333333,0.01905838981189623,4.618056808282597e-06,56.192666666666675,0.11236646395709998,0.28000000000000114,-0.00017076393521157102
S087,13837.0,13866.984375,N1,0.2947187500000001,21.911324921527036,-47.55,34.2,81.75,5.265,37.74553729268725,1031.25,1044.4173177083333,0.16232629604869597,0.2599996661322643,0.17950549357115014,64.58007208726404,0.17594280447334348,65.3834841531101,0.07916666666666666,50,0.12379932499999999,0.000999068225585719,-2.37129621617193e-07,35.55133333333333,0.015434449203720424,-1.2500003390842148e-05,56.44233333333334,0.23165611486761006,0.6499999999999986,0.00040920149989189913
S087,13867.0,13896.984375,N1,-0.3739843750000001,22.448219350080734,-46.1,32.06,78.16,4.74,29.897913445071232,1093.75,1090.6168619791667,0.12801909579781012,0.09636964965693294,0.11580316603568701,64.56932045760718,0.1057779568897083,65.39113089708727,0.022916666666666665,21,0.12424767499999999,0.000999068225585718,3.805749730292338e-07,35.558,0.015143755588801783,1.2222225537714384e-05,56.358666666666664,0.1461901349460888,0.5800000000000054,-0.00022708339493364766
S087,13897.0,13926.984375,N2,0.33405208333333325,22.609678388021962,-49.65,35.26,84.91,5.039999999999999,55.43620209797492,1062.5,1059.2203776041667,0.16532992583014122,0.19249988726547929,0.1356408400888169,64.57943761202614,0.13839935364482192,65.3834841531101,0.053125,30,0.12429036666666667,0.0010510746796599266,-5.429189840817555e-07,35.610666666666674,0.01896195020443683,2.5625006951226517e-05,56.19233333333333,0.14957012476501463,0.5499999999999972,4.781251296997425e-05
S087,13927.0,13956.984375,N2,-0.060494791666666596,23.476037098030364,-50.3,33.54,83.84,4.485,27.030384439417585,1062.5,1062.5,0.07198059875565235,0.08507936450096985,0.09107288747664329,64.56773466574133,0.0874078624871225,65.39113089708727,0.013541666666666667,13,0.123735275,0.0009542637996775305,-2.6492910832495315e-07,35.654666666666664,0.02171532996653575,3.3333342375579406e-05,55.93766666666667,0.1326570348262343,0.46999999999999886,0.00022795145072467647
S087,13957.0,13986.984375,N1,-0.03398437499999994,23.450906690222144,-46.4,33.79,80.19,4.535,33.698260950671454,1046.875,1037.9638671875,0.1529193630552463,0.15925921720229846,0.10642856726723121,64.5788141802478,0.12369615875244554,65.3834841531101,0.04583333333333333,33,0.1237673,0.0010961514995656372,-7.578140076535381e-07,35.72666666666667,0.026119384032213314,3.9652788534285806e-05,56.358333333333334,0.12272145515579344,0.529999999999994,8.107641088227262e-05
S087,13987.0,14016.984375,N2,-0.13213541666666667,23.748485489482533,-51.91,34.55,86.46,5.42,34.06845643423957,1062.5,1065.6331380208333,0.11987768650679834,0.13188915142607022,0.11599041357658253,64.57325525916535,0.11599670113023336,65.39113089708727,0.03125,23,0.12367122500000001,0.0010031660502504045,3.399877224359052e-07,35.745333333333335,0.016878651868231065,1.618055994481509e-05,56.77499999999999,0.11307077429645536,0.3200000000000003,-0.00015545143105778783
S087,14017.0,14046.984375,W,-0.20229687500000001,24.733593873965866,-79.1,57.47,136.57,4.755,48.02777704222098,1062.5,1065.4541015625,0.17950549357115014,0.14282613750835507,0.12426432820358739,64.5792835807393,0.13104909431576886,65.39113089708727,0.051041666666666666,45,0.12457855833333334,0.0010157741612175498,2.796174803649852e-07,35.77666666666667,0.01299572579307749,-6.111112768855551e-06,56.84066666666667,0.14132547147944935,0.529999999999994,-0.00015194448566202342
S087,14047.0,14076.984375,N1,0.2760416666666668,22.106651684653585,-49.24,32.21,81.45,5.17,34.5345196295568,1062.5,1060.7259114583333,0.11557806855349137,0.10152910775842668,0.11110243021644486,64.56746562631783,0.11033703336775433,65.3834841531101,0.021875,18,0.12462124999999999,0.0009726611884412755,2.0961116797177851e-07,35.775333333333336,0.011469767022722266,-9.444447006413028e-06,56.479000000000006,0.1855684958894339,0.5,0.0003073264722565307
S087,14077.0,14106.984375,N2,-0.1366770833333333,24.78135350755802,-50.52,34.37,84.89,4.52,30.733541403539846,1062.5,1077.6529947916667,0.12801909579781012,0.05581428468591172,0.10642856726723121,64.56692894584809,0.10810412481748057,65.3834841531101,0.01875,18,0.12509081666666666,0.0011374921683491056,8.320740104367425e-07,35.80266666666667,0.02096558025802126,3.0208341527869244e-05,55.885999999999996,0.3472616688704165,1.0300000000000011,-0.0005764584897077065
S087,14107.0,14136.984375,N2,0.3805520833333334,24.387142584673672,-51.76,33.6,85.36,6.029999999999999,31.637141869323816,1062.5,1062.7604166666667,0.15612494995995996,0.11557806855349137,0.12401959270615269,64.57112836648054,0.13152241694084127,65.3834841531101,0.03229166666666667,24,0.12572046666666664,0.0011571964535990506,6.161212608835878e-07,35.864000000000004,0.024846193538111263,3.340278683886281e-05,55.681000000000004,0.13158900663302692,0.38000000000000256,-0.00020940977902826106
S087,14137.0,14166.984375,N2,-0.2252864583333333,26.141194841292958,-143.52,87.08,230.60000000000002,5.375,53.71389115043948,1093.75,1085.9619140625,0.9426225789725646,0.2530285309999645,0.46285529708718537,64.58246865830665,0.1869500793576856,65.45991139621256,0.0875,61,0.126307425,0.0009230545186363607,5.690611352704912e-07,35.87433333333333,0.020604745947366075,-2.2881950651570207e-05,56.50833333333333,0.5785561530415368,1.5799999999999983,0.0010022572163241145
S087,14167.0,14196.984375,N2,0.13143749999999998,23.361985795934107,-51.24,33.11,84.35,5.42,23.310059111407607,1031.25,1026.4811197916667,0.1496378730654628,0.2582808246366733,0.15644432360711874,64.59738656362067,0.17542562572145318,65.39877674696982,0.09583333333333334,76,0.12677691666666666,0.001121096454245676,1.1670662888092186e-07,35.894999999999996,0.01727232854404098,2.4340284380500682e-05,57.38233333333333,0.3111985789741901,0.8999999999999986,0.0005526043165701805
S087,14197.0,14226.984375,N2,0.013942708333333265,26.748677516507883,-113.84,81.16,195.0,4.87,40.04009131787117,1078.125,1071.1751302083333,1.039228396322109,0.09636964965693294,0.536529121543173,64.57825377043743,0.1337533587742821,65.45991139621256,0.03229166666666667,26,0.12637141666666665,0.0010100403587921087,-3.934866518789743e-07,35.90466666666665,0.014544949486180427,-8.333335593895851e-07,57.47933333333334,0.4261215267450776,1.0500000000000043,-0.0007136113046905671
S087,14227.0,14256.984375,N2,-0.04982812499999986,24.430062696519542,-49.32,35.17,84.49000000000001,5.635,25.797931655920095,1031.25,1040.2994791666667,0.0,0.0,0.08507936450096985,64.57379732888336,0.0700489944862269,65.39113089708727,0.007291666666666667,7,0.12617935,0.000991598218786219,4.874541252859505e-07,35.93733333333333,0.02159217965427009,3.3680564691995864e-05,57.10133333333333,0.03801169410706228,0.1700000000000017,-8.472224520459514e-06
S087,14257.0,14286.984375,N2,-0.27379687500000005,24.675498507088435,-204.92,61.0,265.91999999999996,4.68,112.22373071580968,1062.5,1049.3570963541667,0.5580835495370642,1.97056353861585,0.5379842779611067,64.84133115017177,0.8543416610258026,75.34586916347837,0.010416666666666666,3,0.12697963333333334,0.0008477682263187032,1.9530213631242898e-07,35.970333333333336,0.014255603186895015,2.53472290980988e-06,57.583999999999996,0.5116287716694595,1.3500000000000014,0.0007673613192711917
S087,14287.0,14316.984375,N2,0.2721875,21.584761296221085,-48.81,30.69,79.5,5.975,27.9668991357313,1062.5,1061.7919921875,0.3621031712056969,0.08507936450096985,0.37080407187923675,64.80835953101453,0.3251177716218656,65.3834841531101,0.004166666666666667,4,0.12736385833333333,0.0009753643959723779,-1.0536613101294821e-07,35.989333333333335,0.016719914938646236,2.2569450566799887e-05,57.18500000000001,0.24827068561014867,0.7899999999999991,-0.00042559039322656
S087,14317.0,14346.984375,N2,-0.27960416666666654,22.021865872581795,-45.49,29.7,75.19,4.715,43.40157197760809,1046.875,1049.7721354166667,0.33447071579171506,0.07880950133074058,0.36210317120569685,64.83352195070182,0.3208942731338292,65.45991139621256,0.0010416666666666667,1,0.12735315,0.0008223484830046229,1.9510378556417856e-07,36.047333333333334,0.02322833518691231,2.9652785821610782e-05,56.182,0.4409489766401551,1.3400000000000034,-0.0005134029170472316
S087,14347.0,14376.984375,N2,0.09031770833333337,22.20171638572068,-46.54,49.78,96.32,4.79,26.692504882037152,1031.25,1033.0240885416667,0.21358993356949718,0.07198059875565235,0.39523529384405937,64.8310795439508,0.3336667488003388,65.3834841531101,0.005208333333333333,5,0.12850600833333334,0.0010371553844999452,5.1140855886734094e-08,36.07333333333334,0.014681810363697834,1.4236114972906133e-05,56.925666666666665,0.2250434525942835,0.8100000000000023,0.0003764931576858606
S087,14377.0,14406.984375,N2,-0.08014062500000001,23.46202587274043,-49.42,31.63,81.05,4.795,34.7226900493047,1062.5,1059.2854817708333,0.2049728979374807,0.07198059875565235,0.4186981725804666,64.81017543997608,0.34537579463648527,65.82552696332935,0.003125,3,0.128217775,0.0009755221291057452,4.3645194131183494e-08,36.114000000000004,0.01404753833713763,1.4444448362752588e-05,57.22833333333333,0.054226889598754394,0.17999999999999972,-7.246529743524742e-05
S087,14407.0,14436.984375,N2,0.30810416666666646,24.419942167587458,-52.47,36.19,88.66,6.17,34.25304859636494,1062.5,1058.544921875,0.13928372696486196,0.12401959270615269,0.43886196735293537,64.79327515753677,0.3538987987103142,65.3834841531101,0.0020833333333333333,2,0.1288155666666667,0.001054533630989973,8.970670836228013e-07,36.135,0.013844373104862416,1.4062503814697525e-05,56.830666666666666,0.12894270906965705,0.46999999999999886,-0.00022493061657189023
S087,14437.0,14466.984375,N2,-0.08686979166666679,24.097800613760292,-52.34,34.7,87.04,4.9,23.464469933644356,1078.125,1078.2063802083333,0.13188915142607022,0.06441510347391793,0.4083426338226542,64.82962367838499,0.3340065652768763,65.3834841531101,0.0010416666666666667,1,0.12908244166666666,0.0010483037393477918,1.6790434242196843e-07,36.13066666666667,0.015902480589168037,4.236112260229632e-06,56.27866666666667,0.16520156039080097,0.5499999999999972,-0.00029048618991053273
S087,14467.0,14496.984375,N2,-0.008494791666666638,23.962747333425646,-50.74,37.95,88.69,5.119999999999999,49.92867720773979,1062.5,1070.9554036458333,0.11131708339493787,0.18483053424390922,0.45210613421764395,64.78377176597458,0.358525834653943,65.3834841531101,0.00625,6,0.12954146666666666,0.0009542430152860582,7.532684335038092e-08,36.16199999999999,0.015362291495736936,1.5486115311987393e-05,56.061,0.037089980677625506,0.15000000000000568,7.0486130231695955e-06
S087,14497.0,14526.984375,N2,0.10964583333333344,23.9490605717719,-49.51,34.42,83.93,5.6899999999999995,30.576092989899106,1062.5,1067.7001953125,0.15612494995995993,0.06441510347391793,0.42934361238988983,64.80015588734582,0.35385539750840816,65.3834841531101,0.0010416666666666667,1,0.12931729999999997,0.0009490549299171287,3.964206804526599e-07,36.161333333333324,0.013597385369581052,1.187500322130094e-05,55.829666666666675,0.0878059729681819,0.23000000000000398,8.850696845349735e-05
S087,14527.0,14556.984375,N2,-0.0974947916666666,24.094455102630587,-50.3,32.52,82.82,4.295,48.727106332135385,1062.5,1072.2493489583333,0.10642856726723118,0.06441510347391793,0.439992897669951,64.79089267955214,0.3588418222858273,65.3834841531101,0.0010416666666666667,1,0.12975494166666665,0.0009324435308713846,-4.1003505046523854e-07,36.19233333333333,0.020442330808617057,2.1701394775770245e-05,55.84466666666667,0.11253838851205007,0.30000000000000426,-0.00017729171476012448
S087,14557.0,14586.984375,N2,-0.29529687499999996,24.657739847581976,-49.38,34.2,83.58000000000001,4.105,25.869506152370572,1062.5,1053.5074869791667,0.12401959270615269,0.0,0.42934361238988983,64.80272271525752,0.350362226055767,65.00769185258002,0.0,0,0.1300110833333333,0.0010057145518099202,2.381728076640653e-07,36.198,0.017776388834631,1.6666671187786755e-06,56.06933333333333,0.08644587259602884,0.3500000000000014,6.569446226520765e-05
S087,14587.0,14616.984375,N2,0.0022812500000001456,25.374755561303413,-49.91,35.68,85.59,5.27,24.666146487688007,1078.125,1067.96875,0.11987768650679834,0.04559597630883185,0.4249068014642218,64.80988285304689,0.34898840621313343,65.3834841531101,0.0010416666666666667,1,0.13008580833333333,0.0009459909380805724,2.440454221043363e-07,36.24266666666667,0.014126413400279722,7.98611327748352e-06,56.29366666666667,0.04520201568760089,0.19999999999999574,5.92014049482966e-05
S087,14617.0,14646.984375,N2,0.14008854166666673,25.733042586787327,-50.84,35.77,86.61000000000001,5.24,22.725405327343967,1046.875,1042.529296875,0.06441510347391793,0.03225804701500421,0.4299636107826129,64.80731305230533,0.35013084291567015,65.00769185258002,0.0,0,0.1307154333333333,0.0009681136015755382,-1.670343335054074e-07,36.264,0.020099751242242614,2.5625006951229353e-05,56.63966666666667,0.1927430644378391,0.6000000000000014,0.00034406259333295207
S087,14647.0,14676.984375,N2,-0.18665104166666666,26.46052958699167,-51.91,41.84,93.75,4.515000000000001,36.62013887644,1062.5,1068.06640625,0.15132516497779064,0.03225804701500421,0.46599188565896726,64.75111030793727,0.3749518493621073,65.45991139621256,0.0010416666666666667,1,0.13154775833333332,0.0009552871382978084,7.866466977665706e-07,36.29133333333334,0.016275407487644437,2.0833338984732843e-06,56.71766666666667,0.11649558885306484,0.3500000000000014,-0.00020329866625940442
S087,14677.0,14706.984375,N2,0.4741458333333332,26.62693122103195,-52.47,37.69,90.16,6.705,19.178121088016606,1046.875,1050.7893880208333,0.0,0.0,0.48465605645194976,64.70124510043989,0.3938685730070573,65.00769185258002,0.0,0,0.13218805,0.0009766347308487364,-3.659692833032979e-07,36.31266666666667,0.01436043948569098,5.694445989161783e-06,56.568,0.0887092629511335,0.28000000000000114,-0.00015034726300652758
S087,14707.0,14736.984375,N2,-0.17688020833333334,26.28583826983933,-52.26,44.19,96.44999999999999,4.24,46.70637246745172,1078.125,1079.8014322916667,0.12074350109035087,0.03225804701500421,0.4943956748732065,64.67391890304602,0.40031910882915356,65.45991139621256,0.0020833333333333333,2,0.132305425,0.000958395505193437,-4.22484923634142e-08,36.329,0.011647603473104588,-4.826390198130407e-06,56.575,0.1156070932079858,0.3500000000000014,0.00015656254247030716
S087,14737.0,14766.984375,N2,-0.1908541666666667,25.530589038763534,-54.32,38.29,92.61,5.115,27.881661051165995,1046.875,1041.9677734375,0.05581428468591172,0.06451609403000842,0.4985558571597905,64.65184107982466,0.40551817356804676,65.46754921333164,0.004166666666666667,3,0.1330419,0.0010532036555196645,2.8065545807709865e-08,36.327666666666666,0.011742609969205857,1.770833813703877e-06,56.37433333333333,0.10483903005189658,0.29000000000000625,0.0001328125360277079
S087,14767.0,14796.984375,N2,0.28747916666666673,26.22190517168612,-52.28,37.05,89.33,5.824999999999999,19.790353229508653,1046.875,1057.6253255208333,0.0,0.03225804701500421,0.49073004006502613,64.67963148957236,0.39851228310468495,65.00769185258002,0.0,0,0.13341551666666665,0.0011134382334562658,8.044854612861983e-07,36.349333333333334,0.01787611690372134,1.125000305175946e-05,56.42399999999999,0.08416650165000361,0.3500000000000014,4.861112429772261e-05
S087,14797.0,14826.984375,N2,-0.18661458333333336,26.76567769546079,-52.53,38.26,90.78999999999999,4.775,19.032671717486764,1046.875,1045.0846354166667,0.0,0.0,0.4919093680637611,64.67415588478109,0.39976316868184153,65.00769185258002,0.0,0,0.134088025,0.0010031660502504071,-1.0258010595163408e-07,36.38133333333333,0.020121851030380968,2.506945124496716e-05,56.93166666666666,0.06658745293888983,0.2700000000000031,4.586806799806642e-05
S087,14827.0,14856.984375,N2,0.23082812499999986,27.836671816217404,-55.35,39.63,94.98,5.140000000000001,20.130535746515335,1062.5,1060.64453125,0.0,0.045595976308831845,0.49031859682138185,64.68172094240627,0.39788096462789446,65.00769185258002,0.0,0,0.1343122,0.000977447676348973,2.8744669255824004e-07,36.39399999999999,0.016653327995728648,1.0000002712674282e-05,57.05533333333334,0.07766309004640136,0.22999999999999687,2.048611666832544e-05
S087,14857.0,14886.984375,N2,-0.020739583333333124,27.456693703731272,-52.86,41.34,94.2,4.0,26.899525888039406,1093.75,1084.9609375,0.0,0.04559597630883184,0.48902894142939585,64.68680017034231,0.3968211883647278,65.00769185258002,0.0,0,0.13450434999999997,0.0010587103133057718,6.983231060989347e-07,36.41533333333332,0.01543444920372124,1.0000002712675586e-05,56.59066666666667,0.2186920716949342,0.7000000000000028,-0.00039236121754590336
S087,14887.0,14916.984375,N2,0.004723958333333345,26.861553528130766,-53.14,38.84,91.98,4.805,18.012100485198523,1078.125,1070.5729166666667,0.0,0.03225804701500421,0.48946807153843597,64.68471071750838,0.3974808912660956,65.00769185258002,0.0,0,0.13501675,0.0010404702963083604,4.848230481833373e-07,36.42466666666666,0.013597385369581676,7.91666881420112e-06,55.85333333333333,0.13636552187248763,0.47000000000000597,-0.00021784728131708125
S087,14917.0,14946.984375,N2,-0.22682291666666674,27.390780387178484,-55.12,40.64,95.75999999999999,4.295,14.175747877871062,1062.5,1058.4554036458333,0.032258047015004204,0.032258047015004204,0.4931815908944921,64.66816826860352,0.4003803819439048,65.00769185258002,0.0,0,0.13521957499999998,0.0010149112741392752,8.492743189220726e-07,36.441333333333326,0.01521694961401881,1.3819448193210836e-05,55.91100000000001,0.09256889326334172,0.30000000000000426,0.0001579514317359565
S087,14947.0,14976.984375,N2,0.05647916666666661,28.110006757299068,-56.32,40.68,97.0,4.859999999999999,25.096409391906043,1062.5,1056.9091796875,0.0,0.0,0.48385276506793773,64.70378471440789,0.3932157570009066,65.00769185258002,0.0,0,0.13534766666666664,0.0011356998234079714,8.842801877930226e-07,36.46000000000001,0.011254628677421148,1.4583337289313117e-06,56.333333333333336,0.12061877502648147,0.4000000000000057,0.00018638893945012458
S087,14977.0,15006.984375,N2,0.15294270833333332,27.574674689015843,-55.72,38.85,94.57,5.965,20.097107314940025,1062.5,1061.3362630208333,0.032258047015004204,0.0,0.48543790189603264,64.6991765484965,0.3951421007865173,65.45991139621256,0.0010416666666666667,1,0.135924125,0.0008991747101509281,2.5603327257847105e-07,36.46866666666667,0.013597385369580285,8.05555774076552e-06,56.43033333333333,0.018345450541090845,0.05000000000000426,1.6909726809281278e-05
S087,15007.0,15036.984375,N2,0.00222916666666683,27.186440184890873,-51.86,40.17,92.03,4.4399999999999995,20.107993912944586,1062.5,1067.5455729166667,0.0,0.03225804701500421,0.4833052703778432,64.70587416724182,0.39244734644732837,65.00769185258002,0.0,0,0.13605215833333334,0.0011746546158753351,3.5876897753064817e-07,36.48433333333334,0.010857664983269,7.951391045842147e-06,56.3,0.07384668803225675,0.23000000000000398,-9.33333586516289e-05
S087,15037.0,15066.984375,N2,-0.4186302083333334,27.388999429301066,-54.47,40.1,94.57,3.865,21.999760241117162,1062.5,1056.8196614583333,0.05589199343873463,0.03225804701500421,0.49209793056249373,64.67419653691019,0.3997006860708212,65.3834841531101,0.0010416666666666667,1,0.13646845000000002,0.0009476575053783967,-6.556685806392645e-08,36.50066666666667,0.018245242911205575,1.638889333466083e-05,56.27799999999999,0.01939071942966419,0.04999999999999716,3.0138897064585516e-05
S087,15067.0,15096.984375,N2,0.08371354166666668,27.92331446179921,-51.83,43.3,95.13,5.1,38.56205787453327,1062.5,1072.2493489583333,0.03225804701500421,0.0,0.481018838782733,64.71272115632588,0.3915403899267051,65.45991139621256,0.0010416666666666667,1,0.1366712,0.001011025598093345,-4.1162554568835464e-07,36.50599999999999,0.015620499351813054,1.243055892756044e-05,56.289,0.07331893798103253,0.19999999999999574,-0.00010315975020609272
S087,15097.0,15126.984375,N2,0.18471875000000004,27.350156303332742,-51.58,41.59,93.17,4.925000000000001,21.730580511572803,1062.5,1060.0992838541667,0.0,0.0,0.486447180457447,64.69531933451452,0.3953241773407541,65.00769185258002,0.0,0,0.13697002500000002,0.001049459777397403,4.48010104169409e-08,36.52499999999999,0.01499999999999978,5.104168051260811e-06,56.06533333333333,0.06825117011613986,0.20000000000000284,-9.930558249391883e-05
S087,15127.0,15156.984375,N2,0.16980208333333321,27.962742957564608,-54.69,44.21,98.9,4.755,45.391423270726925,1062.5,1061.0514322916667,0.0,0.03225804701500421,0.49434299833212964,64.66270072978561,0.4014673048319062,65.00769185258002,0.0,0,0.1367032,0.0010421285717223218,7.060418581927807e-08,36.52766666666666,0.01725945795466538,-8.229168898970971e-06,56.11666666666667,0.09547541859324603,0.29999999999999716,0.0001331250361124782
S087,15157.0,15186.984375,N2,-0.012010416666666756,28.022570016563876,-56.11,41.34,97.45,4.16,21.413135519479805,1078.125,1073.5026041666667,0.04559597630883185,0.0,0.4856937692620732,64.69880699396357,0.395019271069046,65.45991139621256,0.0010416666666666667,1,0.137055375,0.001064931633662465,3.864886031056335e-07,36.544,0.012806248474864593,2.8472229945805464e-06,56.221000000000004,0.09944345126754191,0.25,-0.00017531254755657195
S087,15187.0,15216.984375,N2,-0.34734374999999995,27.133307403497078,-53.57,40.55,94.12,4.0649999999999995,37.333134872045264,1046.875,1055.4850260416667,0.032258047015004204,0.03225804701500421,0.49209793056249373,64.67418270710341,0.3993321527304749,65.00769185258002,0.0,0,0.1378130666666667,0.0009973213017322425,-1.3833814516551283e-07,36.56000000000001,0.013416407865000304,2.0833338984699584e-07,55.98933333333333,0.05403291178120604,0.17999999999999972,1.381944819321081e-05
S087,15217.0,15246.984375,N2,0.3701145833333333,27.952651193346053,-55.71,42.4,98.11,5.535,26.912934443126034,1046.875,1050.9847005208333,0.04559597630883185,0.03225804701500421,0.48594726901577384,64.69835683282948,0.39491323755875496,65.45991139621256,0.0010416666666666667,1,0.13789842500000002,0.0010498542729231552,4.529951315633509e-07,36.56666666666667,0.014681810363698531,3.680556553971266e-06,56.489999999999995,0.22828344953879876,0.6999999999999957,0.0003829167705394883
S087,15247.0,15276.984375,N2,0.015854166666666756,27.87097731062845,-53.52,43.49,97.01,5.33,19.23191677443621,1062.5,1064.7054036458333,0.0,0.0,0.48812282152024905,64.68939356858915,0.3966859314042635,65.00769185258002,0.0,0,0.1385280083333334,0.0009496574776889619,7.910158395767452e-10,36.577333333333335,0.014126413400279722,3.4027787008406888e-06,56.821000000000005,0.02902297940138621,0.11999999999999744,1.7326393588973763e-05
S087,15277.0,15306.984375,N2,-0.11996874999999994,30.56321412592852,-115.21,140.68,255.89,4.720000000000001,20.71819117095948,1062.5,1066.0888671875,0.04564354645876384,0.05589199343873463,0.4818944098266987,64.70935705492633,0.3928331342811461,65.00769185258002,0.0,0,0.13882678333333337,0.0008638954622650979,4.811077693977253e-07,36.591333333333345,0.00884433277428045,1.2500003390848835e-06,56.517666666666656,0.14607494271396787,0.45000000000000284,-0.00025107645699773754
S087,15307.0,15336.984375,N2,0.07241145833333329,27.533990600775958,-52.69,43.22,95.91,5.175000000000001,20.913313881910945,1078.125,1077.3763020833333,0.03225804701500421,0.032258047015004204,0.47696960070847283,64.7231824701624,0.3889956307317836,65.3834841531101,0.0010416666666666667,1,0.1389228166666667,0.0008257407884573868,-4.997831216859607e-09,36.59866666666668,0.012310790208411632,-4.2361122602295095e-06,56.15599999999999,0.10180373274099555,0.4200000000000017,-0.0001693056014826397
S087,15337.0,15366.984375,N2,-0.04969270833333361,27.836446607807574,-54.53,40.37,94.9,4.9350000000000005,19.423196930557754,1062.5,1066.5201822916667,0.032258047015004204,0.0,0.483027920748089,64.70680131183232,0.3922018923797195,65.00769185258002,0.0,0,0.13885880833333336,0.0008840384163582639,-1.834353796211434e-08,36.60400000000001,0.013808210118137963,5.9027793790095676e-06,55.67400000000001,0.07791448303535464,0.269999999999996,-0.0001305555909710254
S087,15367.0,15396.984375,N2,-0.1705677083333334,28.21704391189169,-55.61,43.4,99.00999999999999,4.775,21.14971256847379,1062.5,1066.5690104166667,0.04564354645876384,0.0,0.47729594061814057,64.72242730652229,0.3874427509576734,65.00769185258002,0.0,0,0.1387947916666667,0.0008893744889512106,1.9623638135752587e-07,36.61266666666667,0.012364824660661135,2.3611117516042315e-06,55.90800000000001,0.12270289320142326,0.4399999999999977,0.0001979167203550127
S087,15397.0,15426.984375,N2,0.0071406249999999005,28.807641318483387,-58.13,74.01,132.14000000000001,5.015,38.232860993014924,1078.125,1068.6279296875,0.032258047015004204,0.0,0.48924966466518915,64.68563194066708,0.39825088811138115,65.45991139621256,0.0010416666666666667,1,0.13906160833333336,0.0008853057503468661,-1.392849770195797e-07,36.61933333333334,0.014360439485692277,1.2500003390848341e-06,56.217333333333336,0.07732758599332765,0.240000000000002,-4.3750011867947756e-06
S087,15427.0,15456.984375,N2,0.1417135416666668,28.153957219471977,-55.75,41.16,96.91,5.35,17.77945056966049,1078.125,1078.076171875,0.045595976308831845,0.03225804701500421,0.49209793056249373,64.67465376912803,0.3999914708407074,65.45991139621256,0.0010416666666666667,1,0.13898690833333335,0.0009204061150368504,3.1512400041341247e-07,36.62800000000001,0.0119443152447794,-1.8750005086267823e-06,55.86466666666665,0.11721016262347718,0.3299999999999983,-0.00019152782973302446
S087,15457.0,15486.984375,N2,0.022817708333333363,29.09400769717772,-57.96,49.23,107.19,4.35,24.63828781849352,1078.125,1085.9212239583333,0.045595976308831845,0.0,0.48693766534388727,64.69457430401688,0.3960395039686256,65.45991139621256,0.0010416666666666667,1,0.13930712500000003,0.0010554226922778417,5.8366118263378535e-08,36.63366666666666,0.012242911781470245,-6.284723927062754e-06,55.614333333333335,0.07570483618780428,0.29000000000000625,-0.00012170142190251289
S087,15487.0,15516.984375,N2,-0.3479322916666668,26.4928751122668,-52.38,40.79,93.17,4.265,23.898727795992137,1078.125,1083.7890625,0.04564354645876384,0.0,0.48858053327982676,64.68771924895945,0.3966253914362717,65.00769185258002,0.0,0,0.140043675,0.0009281112914812544,-8.339846012331119e-10,36.622666666666674,0.010934146311238934,6.319446158704692e-06,55.24699999999999,0.0931003043317621,0.28999999999999915,-0.00014427087246931308
S087,15517.0,15546.984375,N2,0.413546875,27.820555215016128,-53.83,42.47,96.3,5.05,40.38324970436647,1093.75,1093.2698567708333,0.05581428468591172,0.0,0.48902894142939585,64.68743836700106,0.39647511326297274,65.00769185258002,0.0,0,0.14015043333333335,0.0009875699615160896,6.37418141660738e-07,36.61733333333334,0.015040685563571334,-2.083333898468965e-07,54.99400000000001,0.0988803991361958,0.3100000000000023,-0.0001136805863933885
S087,15547.0,15576.984375,N2,-0.07197395833333324,27.8833915472348,-55.81,45.83,101.64,3.34,22.340488803467526,1062.5,1062.9964192708333,0.04559597630883185,0.06441510347391793,0.48693766534388727,64.69616573286967,0.393824578197772,65.00769185258002,0.0,0,0.13950993333333334,0.000980627568901107,-4.13919817144049e-07,36.633,0.013940349110883505,1.909722740267464e-06,55.17966666666667,0.14586485373644825,0.4799999999999969,0.0002560070138907906
S087,15577.0,15606.984375,N2,0.059739583333333415,27.95123013719044,-52.06,43.3,95.36,4.890000000000001,39.32096295419095,1078.125,1074.51171875,0.03225804701500421,0.03225804701500421,0.48812282152024905,64.69026692890083,0.39606144417114014,65.00769185258002,0.0,0,0.14020380000000005,0.0009197861490585725,4.1143240327484727e-07,36.63966666666666,0.013535960336162979,8.229168898971342e-06,55.842000000000006,0.21449786323722006,0.6599999999999966,0.000357500096978107
S087,15607.0,15636.984375,N2,-0.3696666666666667,28.129848942992133,-52.46,39.89,92.35,3.88,20.408261184284473,1046.875,1057.6822916666667,0.05581428468591172,0.03225804701500421,0.4919093680637611,64.67598321200559,0.39857524639200104,65.00769185258002,0.0,0,0.1404599916666667,0.0010104312156684469,-1.1177325080654756e-07,36.65099999999998,0.008306623862916423,-1.6319448871375023e-06,56.169333333333334,0.07792874237974663,0.21000000000000085,8.861113514841994e-05
