participant_id,window_start_time,window_end_time,sleep_stage,BVP_mean,BVP_std,BVP_min,BVP_max,BVP_range,BVP_median,SDNN,median_nni,IBI_mean,x_std,y_std,z_std,mag_mean,mag_std,mag_max,movement_density,burst_count,EDA_mean,EDA_std,EDA_trend,TEMP_mean,TEMP_std,TEMP_slope,HR_mean,HR_std,HR_range,HR_trend
S090,8073.0,8102.984375,W,-1.185015624999999,148.0249712126294,-688.48,459.71,1148.19,3.455,102.51916472316042,828.125,761.8245442708334,15.190286631354535,23.744697850220454,7.251075635604961,65.17455859626922,5.230204277221984,91.23595782365635,0.13229166666666667,62,4.297404500000001,0.030693360048496928,2.880688151228334e-05,34.966,0.06983790756697504,-0.00012013892147865726,63.40266666666666,1.9198054299560905,5.220000000000006,0.003399237033213171
S090,8103.0,8132.984375,W,-0.247708333333334,118.84932135270383,-660.14,716.48,1376.62,2.87,125.66190313591301,593.75,691.796875,2.6567767043161954,1.8333567114986713,1.6322700620778277,64.83171431387763,1.3589465737924544,79.12648102879339,0.042708333333333334,15,4.299709849999999,0.008454085038853509,-5.8106474095721905e-06,34.769999999999996,0.043435776344699036,-7.541668712475339e-05,64.459,0.7462052890011789,2.309999999999995,-0.0013227434143726702
S090,8133.0,8162.984375,W,2.383651041666667,21.38491036711349,-83.2,118.37,201.57,1.18,75.35841346482515,859.375,807.6578776041666,0.7969335490473607,0.6228008183801623,0.38181168778673547,64.67273273778778,0.40969325111202387,66.17401302626281,0.15104166666666666,104,4.283626233333333,0.006807776500362568,-2.4286855546564675e-06,34.68266666666667,0.01931033114394759,-1.6458337797942857e-05,62.23766666666666,0.8627231434372342,2.520000000000003,-0.001522049023993333
S090,8163.0,8192.984375,W,-0.03945833333333336,21.629622454381796,-235.56,78.3,313.86,0.85,130.84281854606982,781.25,839.94140625,1.4696048782798352,0.5805738301217359,0.5201495511442411,64.64213283373833,0.3789736648695421,67.00746227100382,0.11041666666666666,81,4.277681558333334,0.014006573842185543,8.970871140101743e-06,34.66566666666666,0.013085190950928091,-1.1284725283400387e-05,64.53366666666666,2.0787936940019387,7.050000000000004,0.003741841292817192
S090,8193.0,8222.984375,W,0.09049999999999976,73.73177328697355,-495.97,291.66,787.6300000000001,1.4049999999999998,0.0,781.25,781.25,2.375016218877369,0.930555296434458,0.6603665530408093,64.8471786052708,0.6155027236146668,68.4324484437025,0.035416666666666666,19,4.273423241666666,0.01407481538540607,-1.8330259963720664e-05,34.64399999999999,0.014047538337135339,-1.0972225198627847e-05,72.83333333333334,1.9512412004214703,6.209999999999994,0.0029875008104114603
S090,8223.0,8252.984375,W,-0.049088541666666735,23.65280858835078,-53.96,60.02,113.98,-0.215,319.63509724802907,1312.5,995.3206380208334,0.6695178289365332,0.4699106002445808,0.4459878528957438,64.86441029989996,0.40044947192752084,65.76473218982953,0.23541666666666666,146,4.263540308333334,0.0088298610056971,1.2357028091642412e-06,34.642999999999994,0.01004987562111889,-2.256945056679525e-06,70.76166666666668,1.497001632894529,5.530000000000001,-0.0026766326705275232
S090,8253.0,8282.984375,W,-0.09686979166666679,25.986524154832875,-63.08,67.96,131.04,-0.6599999999999999,159.47600324380653,671.875,766.2353515625,0.8636139143480468,0.464686087291434,0.5349584615234677,64.77077957838148,0.5345055117170415,67.36467917239716,0.2864583333333333,179,4.284661408333333,0.023913078602338034,-3.0420497184379692e-05,34.63133333333334,0.011469767022722982,-1.6666671187789736e-06,61.641,2.6492078690305387,8.149999999999991,-0.004288369218850155
S090,8283.0,8312.984375,W,-0.048921874999999976,25.69877061209472,-54.74,58.32,113.06,-1.1949999999999998,146.8104170897845,937.5,1046.5250651041667,0.6173665791533873,0.415350786735341,0.5040622739718443,64.79657354758837,0.4698118332279012,65.76473218982953,0.3,190,4.226079316666667,0.015445507093749155,1.1279629361878624e-05,34.62866666666667,0.011469767022723532,-2.3611117516031956e-06,60.519999999999996,0.34008822384787163,1.3999999999999986,0.00047256957263714516
S090,8313.0,8342.984375,W,-0.1331093750000001,27.273418459121885,-64.56,58.82,123.38,2.06,81.92263077594173,765.625,825.6022135416666,0.5386847005412556,0.4962872134801469,0.4437010927665406,64.82937279687589,0.4236815986377606,66.55824516917495,0.19479166666666667,131,4.236581216666667,0.006965390695172002,-1.2290736841020379e-06,34.62433333333334,0.012565384549980983,-7.291668644669015e-07,63.412333333333336,0.8961833269792266,3.1799999999999997,0.0009420488666582219
S090,8343.0,8372.984375,W,0.406578125,58.509619260863325,-291.71,381.53,673.24,0.585,104.11281465240182,765.625,794.43359375,1.2831439254165269,0.6258189079562518,0.5031109815162278,64.84793513068858,0.4715852195941503,67.08949247087803,0.18958333333333333,122,4.240999691666667,0.020005556237287295,-2.2552669963289348e-05,34.614000000000004,0.010832051206181924,-6.944446328250613e-07,65.086,1.6544155060524142,5.269999999999996,0.0029686813608619128
S090,8373.0,8402.984375,W,-0.3270885416666669,75.60690470709666,-758.99,356.06,1115.05,1.81,26.829946393043844,906.25,923.6897786458334,0.6214866528914537,0.3535472524602931,0.48765577995367004,64.79953367178858,0.4277100872518693,65.73431371817918,0.24479166666666666,151,4.20251425,0.008805492168953488,-1.1467400246148172e-05,34.622,0.015143755588800845,1.84722272331352e-05,66.46933333333334,0.9403613962490989,2.730000000000004,-0.0013250698038926323
S090,8403.0,8432.984375,W,0.20485937499999993,23.991668805307352,-56.0,53.04,109.03999999999999,0.36,0.0,906.25,906.25,0.714240077907204,0.5255195428626376,0.4923360115448482,64.72048094835367,0.4529670486080841,66.58828725834597,0.24270833333333333,156,4.115255,0.046764389627863924,-8.158609331219979e-05,34.62400000000001,0.010519822558707393,2.8472229945807184e-06,64.83999999999999,1.5651368417276916,4.280000000000001,-0.002753959080392546
S090,8433.0,8462.984375,W,-1.660036458333333,36.76699488769224,-234.17,123.28,357.45,-2.29,64.35872058309826,906.25,885.2213541666666,0.5303259938209913,0.4818944098266987,0.36471872486052714,64.88545630573113,0.3811408275053972,66.17401302626281,0.1875,123,4.03928725,0.010762459670268957,-1.8144402057400683e-05,34.62533333333334,0.011175369742827509,1.7361115820617903e-06,62.25300000000001,0.22494666034418004,0.6999999999999957,-0.00031197925129645455
S090,8463.0,8492.984375,W,1.9199791666666666,39.22576762313984,-219.82,125.12,344.94,-0.79,97.95687742623849,875.0,803.8492838541666,0.6463833343539694,0.4764187510886708,0.30505008696205205,64.83893521302033,0.32752421043174224,66.17401302626281,0.10104166666666667,73,4.017621875,0.0070863452763778164,-1.01445810939077e-05,34.622666666666674,0.013148721948877829,-4.6527790399253255e-06,64.12866666666666,1.5832345232325982,3.9199999999999946,0.002748264634403383
S090,8493.0,8522.984375,W,-0.34338541666666667,39.37299071457218,-109.18,97.44,206.62,1.335,99.72916591015543,906.25,867.0247395833334,0.5140717345506256,0.33374973990834644,0.2885548282196797,64.69045135089729,0.3173520923568242,65.80273550544841,0.09375,79,3.986970125,0.008438691686277072,-1.413121064757235e-05,34.614000000000004,0.012000000000000455,-3.3333342375588587e-06,66.94666666666667,0.8508048477112052,2.3699999999999903,0.0015179170784280248
S090,8523.0,8552.984375,W,-0.198864583333333,35.223961389975656,-91.11,86.99,178.1,-0.46,111.83466614612625,765.625,823.8606770833334,0.5551594725216851,0.43682487591965524,0.2126607847606135,64.72784874861983,0.27266531828076906,65.86349520030045,0.04791666666666667,37,3.9671617583333334,0.004332793496494381,-5.849906751819351e-06,34.59800000000002,0.011075498483889161,-3.6111120906875117e-06,66.10333333333332,1.4672407967186423,4.060000000000002,-0.0026131951533189977
S090,8553.0,8582.984375,W,0.11318229166666664,38.852569231166726,-126.06,113.68,239.74,2.45,46.53122977677699,796.875,813.3382161458334,0.5302932561328684,0.48968416514853963,0.28685767618958513,64.69390692034624,0.32511390041676524,65.80273550544841,0.0875,69,3.957001408333333,0.0036484663341734844,-3.4758449098971748e-06,34.593333333333355,0.010434983894998001,5.6250015258785475e-06,67.04133333333333,1.5768824376668737,4.530000000000001,0.0027438896332165875
S090,8583.0,8612.984375,W,-3.645833333312254e-05,34.44765319093964,-86.82,86.02,172.83999999999997,-0.685,142.85777984488482,796.875,731.3232421875,0.5432309144267187,0.4983468765578852,0.4999121016488799,64.74217443767995,0.46638583564294195,65.80273550544841,0.15416666666666667,113,3.9453682083333335,0.004192143814915056,-5.450911417890473e-06,34.600000000000016,0.00999999999999801,1.3194448023664912e-06,70.47366666666667,0.9112024412219776,2.710000000000008,0.0015237156911121154
S090,8613.0,8642.984375,W,0.24010937500000082,108.78257771735227,-649.89,557.47,1207.3600000000001,1.815,175.5781295260513,609.375,724.5686848958334,0.8241150293479802,0.5591683743143324,0.46928094929903136,64.68680266755104,0.43404375660107275,67.74953874381728,0.1125,83,3.9679621833333334,0.014247334502743174,1.4156541166596474e-05,34.59133333333334,0.011469767022722982,-2.2222228250395846e-06,70.38366666666667,1.1228994711113827,4.3799999999999955,0.0009767016538361685
S090,8643.0,8672.984375,W,-0.4106093750000001,35.514496221518414,-228.63,141.54,370.16999999999996,0.675,47.474994853874676,1000.0,985.9619140625,0.5051127486897247,0.4090767042988393,0.3388075878684275,64.62479719671903,0.32781440318621036,65.80273550544841,0.16354166666666667,110,3.961131733333333,0.004537972788469446,-3.759047026651261e-06,34.59600000000001,0.01280624847486474,6.180557232138541e-06,75.46399999999998,0.802959525754567,3.25,-0.0002887500783284712
S090,8673.0,8702.984375,W,0.5876302083333335,59.35416809341337,-656.18,167.59,823.77,0.9,231.64468482585613,796.875,988.5091145833334,0.5606828286785677,0.3937320873350586,0.4900208594624655,64.7880245814022,0.45230429243864406,65.88626564011653,0.165625,118,3.959637525,0.006466886123375609,-7.561221452154217e-06,34.60200000000001,0.011075498483889163,9.16666915328371e-06,72.394,2.6888505598737416,8.36,-0.0046213901425211975
S090,8703.0,8732.984375,W,-0.53990625,28.97761031691038,-63.82,58.61,122.43,-2.67,118.47459300030476,921.875,1014.8600260416666,0.49746645441063553,0.33473014628702524,0.42163187438807326,64.66126111810449,0.3892543508327165,65.80273550544841,0.15,105,3.9365049833333337,0.005027050041166177,-6.56277738790619e-06,34.60400000000001,0.012806248474864593,-6.875001864962763e-06,63.29533333333334,1.1489697800880383,4.240000000000002,-0.0013735420392637903
S090,8733.0,8762.984375,W,0.21055208333333306,39.898801706465704,-293.72,102.83,396.55,2.1550000000000002,188.9662253159282,1171.875,1013.232421875,0.5342186255930764,0.44546202411715813,0.41197356981027583,64.66124814667026,0.3819748439347522,65.80273550544841,0.14166666666666666,112,3.91679725,0.00585218289223489,-8.542844765311594e-06,34.61400000000001,0.014047538337137157,1.2500003390842839e-05,62.910333333333334,0.44152375046221665,1.25,0.0006962154666383094
S090,8763.0,8792.984375,W,-0.22165624999999986,27.09844093313923,-67.64,72.25,139.89,-1.26,70.51042321215863,656.25,689.0869140625,0.512829120270312,0.4329926545438027,0.13257842935619488,64.7291112130085,0.2292994562674022,65.80273550544841,0.359375,154,3.92444965,0.00651564742964964,7.895029051385927e-06,34.60133333333335,0.014313940369055018,-1.0763891808780161e-05,65.12666666666665,1.0946699147333045,2.8500000000000014,0.00185555605890735
S090,8793.0,8822.984375,W,0.4004270833333333,29.750913993748714,-71.83,65.39,137.22,-1.165,105.9290807748684,703.125,739.6484375,0.6027056688499693,0.44470261598810806,0.29860606423383673,64.64210238780137,0.31400459391837215,65.80273550544841,0.15,113,3.915420475,0.007347787786087374,-1.214006991646861e-05,34.59733333333335,0.010934146311236233,-4.861112429771531e-07,66.76066666666667,0.4212911371275486,1.480000000000004,-0.00015868059860042145
S090,8823.0,8852.984375,W,-0.11173958333333343,34.871688238737214,-277.9,152.54,430.43999999999994,1.77,187.8113723794378,1093.75,907.1207682291666,0.494710519661639,0.4913299959605108,0.2943625410196677,64.63833522757655,0.3065164608464074,65.80273550544841,0.16979166666666667,132,3.903990125,0.002834041018176741,-2.322197461533569e-06,34.60466666666668,0.01024152766382336,-6.527779548550232e-06,64.942,0.6392933598904341,1.8900000000000006,-0.001128750306193117
S090,8853.0,8882.984375,W,0.018994791666666563,33.219013592243215,-99.9,95.63,195.53,-0.315,112.48355056454209,765.625,853.8818359375,0.5468303553205509,0.4553775429214996,0.3903123748998999,64.64265507118448,0.3750826769307731,65.80273550544841,0.1875,133,3.890596066666666,0.006579845576624324,-6.430256518624277e-06,34.59733333333335,0.010934146311236233,2.1527783617557805e-06,64.37066666666666,0.5832377064475708,1.6599999999999966,0.0009401391439179545
S090,8883.0,8912.984375,W,-0.17551041666666659,31.393747795970057,-69.36,65.08,134.44,-1.54,98.3483491090273,1125.0,1066.552734375,0.4739468863086524,0.36011548109213826,0.43942903097529745,64.67695276408924,0.4032548637067624,65.80273550544841,0.17708333333333334,132,3.881737725,0.0034124651523555916,-4.670876050042212e-06,34.60266666666668,0.010934146311236233,5.902779379007964e-06,64.249,0.6169837923316943,1.9400000000000048,-0.0009478127571106644
S090,8913.0,8942.984375,W,0.3204687499999999,31.108031771839464,-69.73,63.07,132.8,0.545,106.06310213700212,1125.0,1087.9313151041667,0.4837630543027582,0.4500566611704451,0.4996863165332382,64.7665489329572,0.4274119576313224,65.80273550544841,0.16041666666666668,114,3.8743629166666667,0.002805856849470847,-3.237613291453293e-06,34.594666666666676,0.011175369742825627,2.708334068014739e-06,63.41433333333334,0.6143217578942013,1.7299999999999969,-0.0010889239065006247
S090,8943.0,8972.984375,W,-0.38925520833333344,34.25072993774296,-72.0,69.98,141.98000000000002,-1.51,143.06598939570895,781.25,815.1936848958334,0.5859317129343847,0.4999902342796308,0.4885805332798268,64.6871909835409,0.4128530718115705,65.7723346096214,0.125,90,3.8578415833333337,0.00909719428595373,-1.565747820569616e-05,34.596666666666685,0.010749676997729848,6.805557401680218e-06,63.635,0.4549853477494265,1.480000000000004,0.0007254515856802258
S090,8973.0,9002.984375,W,0.3283645833333332,31.4698054131588,-72.79,70.07,142.86,-0.485,105.66433044512439,1125.0,1072.2412109375,0.5365786677335083,0.46141835793742175,0.36010794822525094,64.62925776197366,0.35160271571855006,65.7723346096214,0.153125,107,3.8346287666666665,0.004339071810755004,-6.746994885795002e-06,34.596000000000004,0.014742229591663271,-1.0416669492360378e-06,64.39666666666668,0.5720683719820757,1.4100000000000037,0.000978611376576437
S090,9003.0,9032.984375,W,-0.08143229166666648,59.241322377738356,-528.79,246.47,775.26,0.66,185.58901374116024,750.0,844.1080729166666,0.4540280751842947,0.4529561467000236,0.39523529384405937,64.61905764372358,0.38499684474315327,65.7723346096214,0.19375,128,3.8137532333333337,0.007424997027758469,-1.23361930165454e-05,34.594666666666676,0.012310790208411899,-2.2916672883212664e-06,64.85333333333332,0.10873004286866797,0.35999999999999943,-0.00013069447989759128
S090,9033.0,9062.984375,W,0.21786458333333333,33.57185861176484,-72.47,74.24,146.70999999999998,-0.29,0.0,1031.25,1031.25,0.4822860420838332,0.42163187438807326,0.49914858064063,64.73310732399369,0.4630329509308585,65.39877674696982,0.19791666666666666,129,3.7902841083333336,0.006388276860515448,-1.0877068271774143e-05,34.58466666666668,0.011469767022724248,-3.75000101725317e-06,64.58,0.3568379650952706,1.0,-0.00042798622720980494
S090,9063.0,9092.984375,W,-0.31316145833333325,31.547037292466378,-66.37,64.12,130.49,-0.5,96.72334209901304,890.625,950.4069010416666,0.4215224864668814,0.31280540631872433,0.4112552241309525,64.63015689384882,0.3941064278652588,65.7723346096214,0.196875,140,3.768821408333333,0.006116789402259756,-1.0116775096781445e-05,34.57933333333334,0.013399834161496614,4.722223503208068e-06,63.583999999999996,0.5465077004641984,1.5599999999999952,-0.0008696530136862547
S090,9093.0,9122.984375,W,0.1992864583333333,32.28247837548683,-67.8,63.5,131.3,-0.765,74.94006366955982,828.125,790.2913411458334,0.47495887979908324,0.30123984249818836,0.4643497170476387,64.6632146152703,0.43412819092865795,65.4446330878247,0.18125,130,3.7646483583333334,0.006377938647917303,-3.5350519572081125e-06,34.57200000000001,0.013012814197297457,-1.2013892147867585e-05,65.239,0.746428607883344,2.469999999999999,0.0012444795042533378
S090,9123.0,9152.984375,W,-0.2709947916666666,33.42183210804438,-68.01,66.83,134.84,-0.10500000000000001,61.72713157087747,921.875,884.2854817708334,0.4986690184185854,0.26638779363405946,0.49300664859163457,64.72955503091777,0.464710124044307,65.4446330878247,0.22708333333333333,152,3.7477109250000002,0.0055602543559362515,-9.162904178305122e-06,34.568666666666665,0.01257864150941077,4.4444456500781815e-06,66.306,0.5107941529292068,1.3800000000000097,0.0008294446694457094
S090,9153.0,9182.984375,W,0.3382135416666667,30.109575860966835,-70.22,58.9,129.12,-1.6749999999999998,92.42521768492203,843.75,876.318359375,0.4841229182759271,0.35379269471448016,0.36210317120569685,64.61262719682365,0.3492110979778221,65.80273550544841,0.16979166666666667,124,3.7323850750000003,0.003910535850243801,-5.891045217840028e-06,34.565333333333335,0.01231079020841485,-3.6805565539709948e-06,65.55233333333334,0.36866139236733547,1.25,-0.0006414932295717314
S090,9183.0,9212.984375,W,-0.3129895833333335,30.177414281695146,-65.51,72.29,137.8,-1.625,22.263697490582025,984.375,968.26171875,0.5054863925523174,0.3725600599418688,0.42229403058045806,64.64741583558401,0.3915257944850657,65.80273550544841,0.153125,115,3.724700691666667,0.004274642331618391,-6.538686018523772e-06,34.568,0.015790292376437913,-4.236112260230199e-06,65.50133333333333,0.29242358925975165,1.0499999999999972,-0.0002089583900169261
S090,9213.0,9242.984375,W,0.23768229166666657,29.533711865515844,-60.74,61.22,121.96000000000001,-0.88,200.43107554638397,812.5,901.0986328125,0.4383473936274743,0.3903123748998999,0.23632521950693283,64.62095410765556,0.25819608105490227,65.80273550544841,0.159375,115,3.7085743333333334,0.005767418320955109,-9.269825431267708e-06,34.56133333333334,0.012310790208414246,-1.3125003560386563e-05,63.27033333333334,0.6785351051263954,2.1499999999999986,-0.001023646111015112
S090,9243.0,9272.984375,W,-0.14900520833333353,28.67321883272158,-74.18,56.55,130.73000000000002,-0.995,13.20699240118325,765.625,758.349609375,0.430554995519349,0.42996361078261286,0.2068462551362458,64.6275825441527,0.23396829998053686,65.80273550544841,0.13854166666666667,97,3.694283841666667,0.0035370557506581445,-4.849307956083931e-06,34.53433333333332,0.016468825769380063,-1.7812504831950326e-05,63.501666666666665,0.5706959688738723,2.049999999999997,0.0009057294123614929
S090,9273.0,9302.984375,W,-0.2840052083333334,28.133696073206526,-76.78,70.23,147.01,-0.195,69.41323951467548,1093.75,1077.7425130208333,0.4465713809279418,0.4807221130757352,0.162326296048696,64.63775089495834,0.20339020292051954,65.80273550544841,0.15,94,3.6820531916666663,0.003620155126270707,-4.619787494517058e-06,34.523666666666664,0.016829207415152102,-1.2604170085766509e-05,66.31466666666667,0.8045111697311745,2.450000000000003,0.0014421531689868632
S090,9303.0,9332.984375,W,0.17780729166666662,26.375130683608884,-52.03,59.89,111.92,1.0899999999999999,109.803488503298,750.0,822.607421875,0.5175301504233567,0.47324121572818323,0.33538431521001233,64.63379096029952,0.322980030813158,65.80273550544841,0.17708333333333334,126,3.669043241666666,0.0060767062185526945,-1.0301477403829546e-05,34.50333333333333,0.013984117975601947,-8.333335593894618e-06,68.04966666666665,0.39230501172203075,1.2000000000000028,-2.8576396640731783e-05
S090,9333.0,9362.984375,W,0.4318593750000001,29.864777217676924,-73.57,64.79,138.36,-0.74,83.09213342298011,843.75,827.7099609375,0.45177120561432665,0.45011452053585455,0.14311453746329664,64.65886188471411,0.22665268613136794,65.80273550544841,0.24895833333333334,113,3.6618605249999994,0.0025631602432755825,-1.5730184388613516e-06,34.491333333333344,0.007180219742845984,-5.555557062598217e-07,67.0,0.8765386471799177,2.469999999999999,-0.0014397920572352598
S090,9363.0,9392.984375,W,-0.4392239583333332,25.983505350186604,-63.17,61.53,124.7,-0.48,77.30115708851413,921.875,879.1585286458334,0.47048175479738025,0.4732137007708274,0.11172573064826603,64.80209883743461,0.2103241863361558,65.7723346096214,0.00625,6,3.6587228166666663,0.003206829111399962,-3.49312334340367e-06,34.47500000000001,0.009219544457294008,-1.493055960572782e-06,65.232,0.6535921256155608,1.8700000000000045,0.0009049308010337471
S090,9393.0,9422.984375,W,-0.13811979166666682,29.550689015800742,-65.09,57.63,122.72,-1.08,49.57500612232475,703.125,725.5533854166666,0.3669255123280776,0.415576699365539,0.1462753717308556,64.65140665960888,0.20864707174529187,65.80273550544841,0.21041666666666667,116,3.6482956083333336,0.0024243818741274156,-2.5978954529882183e-06,34.467333333333336,0.009977753031396268,-4.305556723512499e-06,67.34666666666666,0.5609594954678598,1.7199999999999989,0.0008911113528405368
S090,9423.0,9452.984375,W,0.35272916666666654,29.98784354828885,-72.88,63.75,136.63,-1.005,122.87615846726179,968.75,887.353515625,0.4224481703087637,0.3411820114404561,0.22008274564480418,64.59524241595678,0.24467438997861668,65.80273550544841,0.1125,91,3.638871641666667,0.004674151665981449,-7.235706172880382e-06,34.458,0.011075498483889161,-1.2500003390833785e-06,67.04066666666667,0.9877716785213526,2.950000000000003,-0.001714722687370522
S090,9453.0,9482.984375,W,-0.045661458333333384,26.188728170881195,-63.6,61.35,124.95,0.59,28.06191610452424,1062.5,1052.83203125,0.6251354019997054,0.6301317102179688,0.139563897900647,64.6464565345916,0.20724185828816546,65.80273550544841,0.18020833333333333,91,3.629767833333333,0.003879199164203282,-5.145921968837298e-06,34.45333333333333,0.010434983894998001,-6.041668305573326e-06,63.76433333333334,0.5723849714620007,1.999999999999993,-0.0005808682131261421
S090,9483.0,9512.984375,W,-0.018395833333333358,25.8012364858253,-60.72,66.16,126.88,-0.4,123.76274016547649,734.375,824.2594401041666,0.4850857240964964,0.4030913530316532,0.06451609403000842,64.76764867276484,0.20314707637216345,65.7723346096214,0.004166666666666667,4,3.6234816583333327,0.003048353425747119,-2.933752748956406e-06,34.441333333333326,0.012310790208414298,-1.1041669661912514e-05,65.15866666666668,0.48334758599675304,1.9399999999999977,0.0008546530096172443
S090,9513.0,9542.984375,W,-0.054744791666666764,53.44739380375844,-567.34,199.64,766.98,0.675,140.9593236698427,859.375,816.5445963541666,0.4289833245107942,0.48218141288373567,0.09668440031302304,64.76921581151801,0.2134435780397084,65.80273550544841,0.007291666666666667,7,3.6149755750000008,0.0037900802182858693,-5.553926202779499e-06,34.422666666666665,0.015040685563573655,-1.6875004577640598e-05,65.42266666666667,0.6064702978895361,1.7000000000000028,-0.0008820141281505327
S090,9543.0,9572.984375,W,-0.010979166666666778,26.756925711306955,-78.62,55.0,133.62,-0.475,46.64862045405253,765.625,783.2194010416666,0.409933884828463,0.4998165896245231,0.06451609403000842,64.70938019367635,0.19437493901045566,65.39877674696982,0.3489583333333333,137,3.606821708333333,0.0029728783201801055,-3.864126699253043e-06,34.41333333333332,0.012736648783028787,-1.3958337119774224e-05,65.08000000000001,0.3090738854492019,0.8999999999999915,0.00040722233268835034
S090,9573.0,9602.984375,W,-0.1533177083333332,27.375868402951678,-60.1,61.99,122.09,0.52,92.66569035516632,828.125,855.0130208333334,0.46737181657707555,0.4955356249106168,0.07198059875565237,64.84463207047898,0.20089378008843284,65.34523701081817,0.017708333333333333,16,3.6014640583333337,0.0025835226510065954,-1.6479368619620722e-06,34.39599999999999,0.010519822558704825,-9.513891469695894e-06,67.99700000000001,1.239414243369289,4.180000000000007,0.001138090586504608
S090,9603.0,9632.984375,W,0.3521302083333334,27.028203766577406,-55.06,58.01,113.07,-0.63,85.83342714211977,781.25,824.3245442708334,0.5051288597284416,0.5015211236827418,0.17677362623014656,64.88951842279936,0.23801020395042924,65.39113089708727,0.06354166666666666,52,3.59502845,0.002997382087894899,-2.8132516311988776e-06,34.38666666666666,0.01043498389499959,-2.7083340680157013e-06,66.25,0.4751420840127719,1.6200000000000045,-0.0001241667003490408
S090,9633.0,9662.984375,W,-0.12333854166666666,27.31827412172219,-58.5,55.54,114.03999999999999,-1.19,112.62786774601274,875.0,884.8551432291666,0.49507557644150546,0.4941838371806139,0.1462753717308556,64.90144397035655,0.21032648272864238,65.34523701081817,0.04479166666666667,41,3.584152983333333,0.005982026745431325,-9.416729550979149e-06,34.378,0.01400000000000026,-1.1805558758019948e-05,65.03366666666666,0.774783769118126,2.6300000000000097,-0.000644687674882724
S090,9663.0,9692.984375,W,-0.3003333333333333,26.907569291955543,-55.89,55.2,111.09,0.21,60.285495451013674,750.0,791.9677734375,0.5441449714919729,0.5384157251191272,0.1682735042192389,64.89621827968692,0.2227172989033912,65.39113089708727,0.053125,45,3.5778241166666667,0.00260993546913632,-2.0354693021564187e-06,34.37033333333333,0.012512216252748344,-2.1180561301150504e-06,66.15433333333334,0.4719299618469755,1.5999999999999943,-0.00036024315327776537
S090,9693.0,9722.984375,W,0.368203125,27.015088504898337,-52.5,52.92,105.42,-0.515,165.613689676205,1015.625,949.9104817708334,0.4936401073206629,0.49960813637345386,0.1496378730654628,64.90815416498002,0.19701411588163295,65.34523701081817,0.041666666666666664,36,3.5637256500000003,0.004987379164200373,-7.6139812320912695e-06,34.35266666666668,0.015902480589166143,-6.527779548550628e-06,64.73733333333334,0.2810685958188057,0.9899999999999949,2.70833406801617e-06
S090,9723.0,9752.984375,W,-0.14173958333333342,26.406292915051832,-55.65,53.16,108.81,0.005,156.33785236391083,1125.0,1015.6901041666666,0.4559597630883185,0.48858053327982687,0.17116012950028855,64.88545601703122,0.24042835781658,65.34523701081817,0.06666666666666667,54,3.555721333333332,0.002728735379662588,-2.140345632689262e-06,34.34600000000001,0.013564659966248676,-4.791667966490244e-06,63.82033333333332,0.2989479702036607,1.0,7.114585263288061e-05
S090,9753.0,9782.984375,W,0.06808854166666659,27.09537524234367,-58.73,59.41,118.13999999999999,1.09,154.82072583961624,656.25,777.783203125,0.4936401073206629,0.462664197579867,0.24206145913796356,64.94456596449108,0.2723692662603214,65.34523701081817,0.15208333333333332,119,3.5538429583333326,0.0025825667025779196,-1.3070439743500533e-06,34.33133333333333,0.007180219742846865,-4.4444456500775894e-06,65.54266666666668,0.897730224263145,2.910000000000011,0.0016069448803561427
S090,9783.0,9812.984375,W,0.026057291666666683,28.882313677427245,-58.21,62.03,120.24000000000001,-0.51,104.06636781731054,656.25,723.3154296875,0.431656159379842,0.44755799593150186,0.1682735042192389,64.90311179454632,0.2273859815894848,65.34523701081817,0.06666666666666667,50,3.548314516666667,0.0026540364666652215,-1.7007001141222155e-06,34.32266666666666,0.012892719737208416,3.402778700839751e-06,66.93766666666666,0.28625959469606477,0.9200000000000017,-0.000341909814971195
S090,9813.0,9842.984375,W,-0.23879166666666668,29.2766674268651,-55.18,66.83,122.00999999999999,-0.685,100.81976681075147,953.125,933.0729166666666,0.3704351795148811,0.3421680772011842,0.17399263633843817,64.91359575700822,0.21428772493611414,65.34523701081817,0.05416666666666667,41,3.545902575000001,0.0024489248309631944,-5.528046204439638e-07,34.316,0.01171893055416335,-6.250001695413315e-07,65.812,0.5949139993870249,1.6000000000000085,-0.0010052780504768988
S090,9843.0,9872.984375,W,0.24797916666666664,38.858148646438785,-160.87,105.36,266.23,2.5149999999999997,143.68100168965933,953.125,815.3564453125,0.509079882129405,0.5074274715551857,0.21050689072252873,64.86517394621296,0.26972318069497875,66.15889962809237,0.06458333333333334,52,3.5394669166666666,0.002680040256486645,-2.3452384834089284e-06,34.31933333333333,0.011234866364233528,5.555557062599948e-07,65.60833333333333,0.5952483141979955,2.030000000000001,0.001017048887003278
S090,9873.0,9902.984375,W,-0.19305729166666682,30.91221466334224,-123.31,76.73,200.04000000000002,1.5550000000000002,28.03779079486572,703.125,701.904296875,0.493313581741427,0.496208497774765,0.3669920431320306,64.88863463581775,0.3572045623360818,65.34523701081817,0.18854166666666666,108,3.5381542249999995,0.002361508647251094,2.593657387602132e-07,34.306666666666665,0.012736648783028787,-1.0486113955651189e-05,68.78866666666666,1.4218995119987274,4.739999999999995,0.0024658340022336144
S090,9903.0,9932.984375,W,0.15517708333333324,26.420917196219264,-56.17,54.26,110.43,-1.11,115.66717363873062,953.125,945.2067057291666,0.4930066485916346,0.4999989149293782,0.28408104465197176,64.91122778707066,0.29440421480722356,65.34523701081817,0.14166666666666666,78,3.5347176249999994,0.002649528514857214,-2.7473976636820303e-06,34.306,0.014047538337136954,-1.01388916392392e-05,71.28933333333335,0.8924757077304056,2.450000000000003,-0.001537292083683833
S090,9933.0,9962.984375,W,-0.16111979166666668,25.40587428476237,-62.1,60.51,122.61,-0.93,209.83998665552014,718.75,862.5406901041666,0.422274759158326,0.496208497774765,0.12801909579781015,64.85952550978735,0.20734587508020375,65.34523701081817,0.019791666666666666,18,3.528730275,0.0021505286092900946,-9.1388891978326e-07,34.29200000000001,0.0119443152447794,-5.347223672749424e-06,69.17133333333335,1.0119477369025642,3.4200000000000017,-0.0016738198984971504
S090,9963.0,9992.984375,W,0.14989062499999997,27.493942498350805,-62.84,63.49,126.33000000000001,1.01,47.75854849619631,828.125,825.2848307291666,0.4705935967831834,0.43597825625890513,0.16232629604869597,64.90896238693409,0.23393770875306738,65.34523701081817,0.078125,59,3.5328499583333337,0.00285617789010601,2.6488260223594474e-06,34.28533333333335,0.008459051693631328,2.0138894351909613e-06,66.64366666666666,0.41983713773583925,1.269999999999996,0.0005853126587762209
S090,9993.0,10022.984375,N1,-0.10825000000000004,34.77351662544356,-236.63,94.24,330.87,0.8049999999999999,10.800904374266825,781.25,783.2845052083334,0.466032632903057,0.48695549184875886,0.17860558949042504,64.83920530826158,0.26092143090365266,66.17401302626281,0.04479166666666667,35,3.5299576333333333,0.0025666973264403163,-2.2359502593181637e-06,34.284,0.013808210118137825,-3.6805565539687497e-06,65.62533333333333,0.5767017330378758,2.019999999999996,0.0004858334651240966
S090,10023.0,10052.984375,N1,0.5546979166666668,32.877722292426405,-123.49,77.82,201.31,1.36,109.92922885651406,781.25,783.7239583333334,0.7317098506618286,0.4991301026536068,0.38560102572693794,64.80907831791608,0.39795424639385946,66.55824516917495,0.14583333333333334,93,3.531643925,0.003248426647785298,3.931420120285394e-06,34.28,0.00999999999999801,-6.875001864962246e-06,67.83,0.39987498046264425,1.1800000000000068,-0.00037305565675338015
S090,10053.0,10082.984375,N1,-0.20968229166666685,86.94990152831961,-689.87,376.64,1066.51,1.8250000000000002,127.1656832675732,656.25,712.7278645833334,1.026724075099483,0.5353791734602682,0.512744479289311,64.80023741055675,0.46104757760591175,68.60029154456998,0.16354166666666667,106,3.5396056999999996,0.003824529155334059,1.5198181206104823e-07,34.28,0.00999999999999801,-3.1250008477101117e-06,66.816,0.27475564901684424,0.8199999999999932,-0.0002672917391741924
S090,10083.0,10112.984375,W,-0.14915625,23.201175006536186,-65.68,86.84,152.52,0.19,81.15149501494936,859.375,817.3502604166666,0.5046646559157433,0.3881043674065006,0.2530285309999645,64.93577166913545,0.2970960572634256,65.39113089708727,0.17604166666666668,110,3.537129658333333,0.002644297658786486,-4.7159583105353257e-07,34.27466666666667,0.01231079020841231,-2.7083340680163425e-06,72.865,3.2972996527461684,9.179999999999993,0.00577934184552459
S090,10113.0,10142.984375,W,-0.0481979166666668,23.419001192550088,-48.49,47.76,96.25,-0.08499999999999999,26.580165150074077,796.875,814.7216796875,0.4994256684071103,0.2986060642338367,0.36407553922762914,64.97785337340481,0.3600175703672872,65.34523701081817,0.328125,148,3.534546916666666,0.0023997570383385526,1.1857598702693989e-07,34.25599999999999,0.01562049935181472,-1.7847227063594015e-05,76.328,0.8829888636519332,3.3499999999999943,-0.0013363892514076732
S090,10143.0,10172.984375,W,-0.1973489583333333,23.093966097389913,-50.16,46.57,96.72999999999999,-0.18,43.21264234568506,843.75,815.0390625,0.4899499956769965,0.46798548766672954,0.18558045200577206,64.82613815198584,0.2540091198732298,65.4446330878247,0.0625,44,3.53753525,0.006092949606238903,8.886949459350425e-06,34.246,0.014047538337139181,-6.6666684751172736e-06,67.321,3.201628075422461,9.549999999999997,-0.005363577843852497
S090,10173.0,10202.984375,W,-0.08251041666666671,23.254168540955007,-53.94,47.25,101.19,0.22,0.0,843.75,843.75,0.4302966011143424,0.49738792532980625,0.09107288747664329,64.71570050943735,0.2115992426167295,65.80273550544841,0.346875,129,3.538783908333333,0.0030068704771900974,-3.169119783287869e-08,34.23866666666667,0.013349989596335435,-4.791667966489824e-06,65.58533333333334,0.4591857527793699,1.2199999999999989,0.0007570835387053894
S090,10203.0,10232.984375,W,-0.09606250000000056,48.40380711413026,-221.08,216.46,437.54,0.8200000000000001,129.3841714930385,890.625,883.6263020833334,0.39521744849794044,0.4247535539547871,0.11110243021644486,64.90475339959086,0.20933100972978172,65.34523701081817,0.06041666666666667,48,3.5318573833333335,0.003340371935836212,-3.51896276013531e-06,34.226666666666674,0.009067647005822434,-4.375001186794822e-06,66.63466666666666,0.29987478868502637,1.0600000000000023,0.00041618066845178675
S090,10233.0,10262.984375,W,0.2608281250000001,28.070809424776577,-88.18,117.94,206.12,0.835,119.95484226522451,1093.75,1029.3294270833333,0.43985477401322154,0.33724270027517106,0.23632521950693283,64.92434340849032,0.25708230152247874,65.39113089708727,0.10208333333333333,76,3.5201815499999998,0.00357643777346956,-4.876839864594098e-06,34.202333333333335,0.018381754238615825,-2.0798616753096087e-05,65.84333333333333,0.3974446152890022,1.2999999999999972,-0.0005070834708885299
S090,10263.0,10292.984375,W,-0.19137500000000002,29.543888217803048,-109.25,92.04,201.29000000000002,0.08,69.97795295173852,921.875,904.0201822916666,0.6180130291237124,0.47117313512538983,0.4330127018922193,64.92339639956893,0.4076047240996901,65.76473218982953,0.3104166666666667,153,3.5117820833333337,0.003078478094186913,-3.271303404758906e-06,34.187666666666665,0.01838175423861761,-1.5659726470195727e-05,68.06666666666666,1.1120801330040122,3.950000000000003,0.001836597720431239
S090,10293.0,10322.984375,N1,0.32547916666666676,25.774910949562937,-64.06,76.24,140.3,1.76,167.83960370185738,703.125,770.7438151041666,0.5032436023079567,0.15136818156035595,0.4535689874637472,64.90579472118326,0.4321688847606513,65.39113089708727,0.3489583333333333,141,3.5067232416666667,0.0031090949460034346,-3.902219591531002e-06,34.16266666666665,0.010306416555827608,-1.1944447684584151e-05,70.849,0.4556925132879262,1.5499999999999972,-8.079863302914381e-05
S090,10323.0,10352.984375,N1,-0.21563541666666666,28.370571475496323,-67.8,73.74,141.54,-1.61,100.12344019999476,1265.625,1214.7867838541667,0.6826724446370064,0.5126481831843571,0.5038383486766586,64.78664402214241,0.445025858650778,65.76473218982953,0.26875,152,3.4988575083333333,0.003848544655658418,-5.781332948495192e-06,34.15699999999999,0.010049875621120518,-1.7361115820624066e-07,68.11200000000001,1.1732700740522908,4.400000000000006,-0.002001875543043497
S090,10353.0,10382.984375,N1,-0.0921302083333333,29.88399234773185,-77.78,69.63,147.41,-0.535,83.04035820307371,1062.5,1033.203125,0.5537425930655867,0.502337202415425,0.4949352861738592,64.73212095261188,0.46594024269276135,66.9552089086428,0.25416666666666665,153,3.4899245,0.0034704989530805522,-3.2701189426320904e-06,34.14733333333332,0.01123486636423291,-1.083333627206172e-05,65.37233333333333,0.45370095388433573,1.3800000000000097,0.00046447929266473946
S090,10383.0,10412.984375,N1,0.4504583333333334,51.49438295519001,-552.61,188.07,740.6800000000001,4.96,134.19771525278978,765.625,841.7887369791666,0.6431226716835081,0.49734974699232865,0.5041322302288909,64.77531461066208,0.481179546963184,68.22023160324215,0.28125,173,3.482304291666667,0.0027165047469001175,-2.590921058735156e-06,34.132,0.00945163125250444,-3.1250008477111476e-06,65.86966666666667,0.23904648548393775,1.0300000000000011,0.00029357646852660367
S090,10413.0,10442.984375,N2,-0.4197604166666668,29.88076313911566,-112.09,99.02,211.11,-0.31,59.486249244813195,921.875,878.0924479166666,0.894417485791109,0.520266358064149,0.5991883616262363,64.72635522081423,0.7070936965097887,73.62064927722385,0.030208333333333334,20,3.484822958333333,0.005072993342849697,7.07725300489722e-06,34.11866666666667,0.012310790208413696,-9.65278039626296e-06,65.91866666666667,0.7838738560650065,2.0999999999999943,-0.0013138892453041578
S090,10443.0,10472.984375,N2,0.01502604166666662,22.81751168007053,-73.36,53.64,127.0,-0.515,180.87310775497,953.125,1010.2864583333334,0.5207124859800806,0.2957874817753449,0.49352469367184537,64.75304026762258,0.45646405442649896,66.15134163416491,0.2875,164,3.4902660249999995,0.0027500790487502143,6.63673140102369e-07,34.10000000000001,0.015275252316518752,-1.9791672035500014e-05,65.16499999999999,0.47696785356387805,1.519999999999996,-0.0007145488049448786
S090,10473.0,10502.984375,N1,0.0355625000000001,60.59514623022838,-578.84,254.33,833.1700000000001,4.62,139.53508496873206,890.625,928.7190755208334,0.5418659489183854,0.3290595157878823,0.487062437176522,64.74447382272328,0.4329947097855975,65.76473218982953,0.25729166666666664,154,3.4809274583333334,0.0041821101649283975,-5.97689333140556e-06,34.07466666666667,0.015216949614019598,-1.0069447175958109e-05,65.98266666666667,1.2008328591255135,3.1599999999999966,0.0020153477689202927
S090,10503.0,10532.984375,N2,-0.1922239583333333,23.696825174171735,-52.96,74.94,127.9,1.1549999999999998,22.200889248741568,750.0,743.5139973958334,0.6633830265619972,0.6409628174343137,0.5536328490951582,64.7324571000589,0.5027402799017495,68.66585760041157,0.24791666666666667,153,3.4723680499999996,0.0028329071106374124,-3.1259834868661744e-06,34.05133333333334,0.011469767022723534,-6.388890621986844e-06,66.541,0.6848325829475892,2.299999999999997,0.000597951551093629
S090,10533.0,10562.984375,N2,0.11053124999999996,25.17471981656943,-78.21,65.51,143.72,1.68,73.97575352353634,906.25,894.921875,0.4996515713057784,0.5270421591296088,0.398661769671011,64.66623115613358,0.3755636583854204,65.82552696332935,0.16145833333333334,119,3.4665728333333323,0.002764958327996169,-2.2925097364663753e-06,34.044000000000004,0.009165151389909856,-8.54166898374097e-06,66.41966666666666,1.0562590696520529,2.8100000000000023,-0.00181149354695463
S090,10563.0,10592.984375,N1,0.32235937500000006,23.455658792309933,-62.42,45.04,107.46000000000001,0.54,134.5722178050688,1046.875,1005.2001953125,0.46041077484917986,0.48594726901577384,0.3817392125376811,64.63351197886213,0.37467222780067333,65.76473218982953,0.15,116,3.4604894250000005,0.0028560728884913173,-2.894319144509322e-06,34.017999999999994,0.01661324772583621,-1.458333728931711e-05,64.93866666666666,0.6626700201122403,2.299999999999997,-0.0010340280582758416
S090,10593.0,10622.984375,N1,-0.25056770833333364,63.66518297033675,-548.71,329.47,878.1800000000001,3.71,43.14176617456713,1078.125,1060.8723958333333,0.5751471731942471,0.5157659739945585,0.5123433026030711,64.75851264229519,0.45258372083136295,68.18357573492314,0.18854166666666666,123,3.4545234416666664,0.002541590151184324,-1.1870951570896054e-06,33.99666666666667,0.00906764700582339,-6.73611293839819e-06,62.97033333333334,0.514726356642267,1.4299999999999997,0.0006150348890611134
S090,10623.0,10652.984375,N1,0.4571458333333342,139.87438081922676,-828.36,745.34,1573.7,2.84,47.612899073948576,859.375,869.7509765625,0.5706013823151851,0.499321371059984,0.4258862797319126,64.87727614671195,0.43238460882265345,66.58828725834597,0.23125,131,3.4564551750000003,0.003021062750817191,1.3162818240782209e-06,33.97833333333334,0.012671051872499528,-7.98611327748633e-07,63.26300000000001,0.3076052665348886,0.9200000000000017,-0.00032211814293569245
S090,10653.0,10682.984375,N1,-0.42396874999999995,26.246313955071674,-92.15,69.74,161.89,1.475,110.94415223857807,906.25,894.9951171875,0.5371243842599837,0.4761670148610324,0.41306253730182574,64.91283302020965,0.4058747225194408,66.58828725834597,0.20833333333333334,118,3.45450205,0.002237768121179357,-7.707298097682895e-07,33.96633333333333,0.014715826703095215,-1.899306070775153e-05,64.65766666666667,0.7016346786057696,2.6799999999999997,0.001178160041818587
S090,10683.0,10712.984375,N2,0.3174322916666668,25.36763652029144,-53.39,46.01,99.4,0.43999999999999995,126.8923465623614,1000.0,915.3645833333334,0.3780202449017189,0.49716972391226727,0.4818944098266986,64.84411720668976,0.44234829988908664,65.39113089708727,0.24895833333333334,138,3.449496608333333,0.0028348581866230902,-3.3629147577351383e-06,33.94133333333333,0.011175369742827946,-7.847224350918575e-06,67.66466666666666,0.7332154450697879,2.1999999999999886,0.0011088891896943321
S090,10713.0,10742.984375,N1,-0.08741666666666645,22.76562695191786,-51.69,46.4,98.09,0.9850000000000001,75.45165478005636,718.75,748.9420572916666,0.49183326097085206,0.43620343591035593,0.4702049180203835,64.8889965622108,0.43229058444002266,65.86349520030045,0.2677083333333333,141,3.4461881083333332,0.0021731343178147595,4.0418695860108703e-07,33.943333333333335,0.014907119849999232,-1.0833336272064533e-05,66.83633333333333,0.986503871704966,3.3299999999999983,-0.0017448268622034665
S090,10743.0,10772.984375,W,-0.31685937500000005,24.51481858363545,-72.43,47.2,119.63000000000001,1.065,57.84234774251351,937.5,940.0227864583334,0.5749056383925588,0.5967568236704313,0.4516126582100589,64.88469633849111,0.41600007427671426,65.57438524302,0.22916666666666666,137,3.4396413750000003,0.0035138274574944045,-4.271552591024466e-06,33.917333333333325,0.013148721948878415,-1.1180558588477778e-05,63.708333333333336,0.35550980608447563,1.3899999999999935,-0.0005205209745336831
S090,10773.0,10802.984375,W,0.030354166666666592,23.068393670588176,-54.24,44.83,99.07,1.2149999999999999,127.5168513296573,859.375,867.8873697916666,0.38608472506764047,0.4238495458296493,0.4988876515698588,64.82067936234074,0.4441118529674399,65.76473218982953,0.296875,175,3.430068183333333,0.003003351308631055,-4.102517171906885e-06,33.905333333333324,0.011175369742825854,-5.625001525878842e-06,64.90033333333334,0.6057033560709032,1.8300000000000054,0.0008519099533175879
S090,10803.0,10832.984375,W,0.10327604166666676,25.781622299268413,-53.85,85.68,139.53,1.345,149.04379693786572,765.625,882.3649088541666,0.4264362475961546,0.4286290625516297,0.49859176687947826,64.77685315585931,0.44595802220834474,65.76473218982953,0.24166666666666667,151,3.4196623833333333,0.003761875636309111,-5.896777641270099e-06,33.88999999999999,0.015491933384829338,-1.1111114125193852e-05,66.27033333333333,0.5481939032455169,1.6899999999999977,0.0007721877094693225
S090,10833.0,10862.984375,W,0.09272916666666667,26.583072522549934,-58.44,50.31,108.75,0.33499999999999996,0.0,1171.875,1171.875,0.4542192247876202,0.49888765156985887,0.3903123748998999,64.9095891514053,0.3671777894999888,65.39113089708727,0.16666666666666666,101,3.4112630499999996,0.002120512370670417,-3.332500903998564e-07,33.87066666666667,0.015477582354990868,2.916667457863018e-06,66.68033333333334,0.2585018805003593,0.8499999999999943,0.00044614595435816824
S090,10863.0,10892.984375,W,-0.09351041666666653,28.785424360145214,-60.19,53.31,113.5,-0.16499999999999998,174.4114149271681,734.375,847.7457682291666,0.36110844016106236,0.4999902342796308,0.48619840486049404,64.82782583021542,0.4517076420911319,65.39113089708727,0.25,135,3.407314133333334,0.0022790795178951467,-9.341669200756829e-07,33.86333333333334,0.0179505493571132,-1.0347225029085604e-05,66.333,0.4918546533275848,1.3199999999999932,-0.0007709377091302364
S090,10893.0,10922.984375,W,0.04216666666666657,28.877824322431604,-62.96,55.02,117.98,-0.265,17.92605575462549,734.375,736.5397135416666,0.3531833776721221,0.4998165896245231,0.4992083576774332,64.76981185741323,0.4537035985011888,65.76473218982953,0.21875,132,3.4035786333333333,0.0027444450529913963,-2.9092325600131904e-06,33.85600000000001,0.017435595774160505,-2.083333898474123e-06,64.284,0.7315444848629054,2.269999999999996,-0.0009984724930752198
S090,10923.0,10952.984375,W,-0.10814583333333326,32.03544957997675,-86.97,67.98,154.95,0.585,114.98361549127176,843.75,898.4537760416666,0.37982857747132304,0.4999989149293782,0.480422945535725,64.68484114736161,0.4535424352742522,65.76473218982953,0.21041666666666667,146,3.403471933333334,0.0022850866713443503,2.0937870263094075e-06,33.84366666666668,0.015162087220724419,-5.173612514543159e-06,64.62966666666667,0.19018382919924764,0.5900000000000034,6.989585229379584e-05
S090,10953.0,10982.984375,W,0.0418385416666666,30.146767424568335,-67.39,66.58,133.97,0.21500000000000002,114.53587069232084,1125.0,1086.0921223958333,0.40220205501160183,0.4990224819584785,0.4816049827140496,64.69607684193645,0.4494621922426724,65.76473218982953,0.221875,141,3.4043471083333334,0.0023863073174392453,-1.3077010925838697e-06,33.836000000000006,0.004898979485568862,-1.805556045344903e-06,65.53766666666665,0.4543617012420346,1.2600000000000051,0.0006210765573666889
S090,10983.0,11012.984375,W,0.20565624999999996,30.45178056484277,-74.4,63.64,138.04000000000002,1.995,60.83429623194489,640.625,685.0911458333334,0.4702049180203835,0.49594602185845005,0.4348019484489461,64.65902038835303,0.42036581515071386,65.76473218982953,0.2,131,3.4070366666666674,0.0025582790450266817,2.622978576111905e-06,33.827999999999996,0.011944315244779558,-4.375001186795859e-06,65.72333333333333,0.43728963196287096,1.480000000000004,-0.0003342362017784833
S090,11013.0,11042.984375,W,-0.26553645833333334,31.389936099935692,-72.88,62.97,135.85,1.03,203.42346418395667,1234.375,1102.4169921875,0.4788212069905518,0.4835802171190307,0.48131312717283004,64.73353857387845,0.43687378519444703,65.76473218982953,0.25,157,3.4029382583333336,0.003507422029296886,-4.778046652030868e-06,33.824999999999996,0.011474609652038373,-4.409723418436366e-06,66.56533333333333,0.6302842392303817,1.7199999999999989,0.0009658335953324627
S090,11043.0,11072.984375,W,0.18601041666666657,29.545580577937397,-67.13,68.41,135.54,0.315,57.05062328135225,906.25,930.517578125,0.44526833357975154,0.4759755606908826,0.49682586235018,64.7348041252125,0.45406666585199057,65.39113089708727,0.24270833333333333,148,3.398551749999999,0.001923410236403015,-3.424158914973644e-07,33.82333333333333,0.010749676997729996,-2.083333898473432e-06,68.41533333333334,0.9621217294200474,2.5,0.0015815282067947617
S090,11073.0,11102.984375,W,0.061328124999999956,30.636789755412266,-65.07,57.65,122.72,-0.525,43.771459221242246,843.75,862.6708984375,0.4084555514373626,0.4919093680637612,0.4525966747557918,64.85317454644876,0.4045589135324214,65.39113089708727,0.18020833333333333,102,3.3972604249999994,0.0024606377143012712,2.2614786950625925e-06,33.82333333333333,0.011642832797714362,-1.3888892656585604e-07,69.82700000000001,0.39735919938178527,1.25,-0.00035489592960501426
S090,11103.0,11132.984375,W,-0.29779687500000007,33.47864585246826,-143.02,72.66,215.68,-1.1749999999999998,84.78197407916142,671.875,747.9085286458334,0.469114441661094,0.4967068198953539,0.4007791348493027,64.89413532806682,0.3596178840795963,65.39113089708727,0.14479166666666668,91,3.3953500333333335,0.002672853259887134,-9.810736168277069e-07,33.821666666666665,0.010354816378004405,-7.187501949733775e-06,67.72766666666668,0.8078188053160323,2.950000000000003,-0.0014106601048882656
S090,11133.0,11162.984375,W,0.2719635416666667,31.832326739900026,-121.01,71.41,192.42000000000002,1.51,71.45429950149881,1000.0,986.2955729166666,0.40272374517844806,0.4933542717966472,0.4459878528957438,64.86590899662072,0.4073492057844827,65.39113089708727,0.19375,109,3.397313766666666,0.002288585821467536,1.2650641452539316e-06,33.816,0.010519822558704827,-3.1250008477106292e-06,65.27833333333334,0.725925080309408,1.769999999999996,-0.0012200350531779095
S090,11163.0,11192.984375,W,-0.09611979166666634,31.909672248659966,-73.19,66.32,139.51,-1.355,88.29367071076332,968.75,1012.2884114583334,0.3814249939918289,0.49031859682138196,0.4433096406576333,64.86843048245615,0.39824834306592555,65.39113089708727,0.18541666666666667,111,3.4007716999999995,0.0025042577063871855,2.635357919747598e-06,33.81966666666666,0.010482790129009299,-1.1006947430268453e-05,63.195,0.6471050919286603,1.8800000000000026,-0.0009989933265498387
S090,11193.0,11222.984375,W,0.3760260416666668,33.28881078576662,-84.56,77.46,162.01999999999998,0.865,16.38712095793311,1000.0,984.2447916666666,0.5005194784060745,0.4613713236254383,0.48924966466518915,64.80325878803986,0.4246866888303522,65.76473218982953,0.2,133,3.410003708333333,0.0022867581689509356,2.532880461393279e-07,33.80566666666667,0.01666999966673328,-1.5104170763934993e-05,64.64433333333334,1.2988191645576457,3.8999999999999986,0.002329202020725373
S090,11223.0,11252.984375,W,-0.1831979166666665,61.18728633842842,-293.61,137.68,431.29,10.16,67.72867092943441,1000.0,981.2255859375,0.49737919911103373,0.48594726901577384,0.46393241957267395,64.69473376939732,0.4291046960082008,65.76473218982953,0.22395833333333334,149,3.410419933333333,0.0020231611475334263,1.0411161678374754e-06,33.799333333333344,0.011234866364236255,-8.333335593896517e-06,68.078,0.5087134098225968,2.25,0.000804166884810895
S090,11253.0,11282.984375,W,-0.33454166666666674,38.09730519366294,-117.05,102.9,219.95,0.5449999999999999,84.09197358765397,890.625,912.0524088541666,0.49434299833212964,0.49705731281434967,0.405366293119226,64.66354626434098,0.3896487984072681,65.76473218982953,0.18645833333333334,139,3.4135789499999993,0.0023982904531143954,1.723728332174553e-06,33.79133333333334,0.010241527663824931,-2.5000006781682126e-06,66.77033333333333,1.5668322252947886,5.049999999999997,-0.002798785481441372
S090,11283.0,11312.984375,W,0.09861979166666655,32.852826430937036,-127.87,81.96,209.82999999999998,0.15000000000000002,95.32830466888308,1000.0,1002.3681640625,0.42055993594518987,0.49607837082461076,0.45210613421764395,64.67541807504118,0.4228929950983594,65.76473218982953,0.19479166666666667,141,3.419011391666667,0.0031186845578861783,2.5505942248791457e-06,33.784000000000006,0.013808210118137964,-3.402778700840985e-06,63.587333333333326,0.4790472024991087,1.7199999999999989,-0.0003404862034739047
S090,11313.0,11342.984375,W,0.04754687499999998,29.235564170502926,-65.33,56.68,122.00999999999999,-0.28,128.34997274643464,953.125,886.1083984375,0.5979965103484208,0.6556346321186316,0.4977978850648122,64.74515524916323,0.4713421564175518,65.91661399070799,0.23958333333333334,150,3.4198118,0.002489550717833832,9.755093792072235e-07,33.78533333333334,0.0123107902084119,-6.736112938398067e-06,62.657666666666664,0.3153483083125003,1.0500000000000043,0.0005369098678683458
S090,11343.0,11372.984375,W,0.09375520833333312,29.87620576389055,-64.12,66.37,130.49,-0.28500000000000003,91.71319272103493,843.75,838.427734375,0.47080452529862815,0.49808225977241954,0.49553562491061676,64.73358017353777,0.4542094775435984,65.76473218982953,0.22604166666666667,151,3.419406283333333,0.0026029882448939273,-1.4424526482348006e-06,33.779333333333334,0.014360439485691089,1.5277781922132409e-06,63.16466666666666,0.15092455804878852,0.4799999999999969,-1.4722226215882016e-05
S090,11373.0,11402.984375,W,-0.3954166666666666,29.071019624600183,-62.96,64.95,127.91,-0.7050000000000001,29.193338052183446,859.375,868.1722005208334,0.45008559178289137,0.48989794855663565,0.4792017650188929,64.7036041210569,0.4376418766724671,65.76473218982953,0.22395833333333334,151,3.4207190083333336,0.0025956275814525945,1.6773522345248258e-06,33.77466666666667,0.0123107902084119,-1.0208336102521202e-05,65.16133333333333,0.8431478056795396,2.6400000000000077,0.0014388198347493047
S090,11403.0,11432.984375,W,0.33231249999999984,41.53377416415477,-309.89,126.84,436.73,2.56,60.75111642447461,890.625,910.009765625,0.48835284197380174,0.4930066485916347,0.4324096224614136,64.6733423383125,0.39586292842790627,65.76473218982953,0.19583333333333333,150,3.424027458333334,0.002456893332699573,-2.4862066206071946e-06,33.77066666666666,0.0131487219488773,2.0833338984709388e-07,67.15866666666666,0.9829266955825793,2.4399999999999977,0.001678125455220664
S090,11433.0,11462.984375,W,0.016770833333333474,34.5989305228136,-165.76,92.15,257.90999999999997,1.93,86.52106158168785,953.125,906.5104166666666,0.5019914767287721,0.4618050334165803,0.4229525846816507,64.65854496650365,0.3987745578146652,65.76473218982953,0.18958333333333333,141,3.4186058916666666,0.0018422842152965365,-8.183958383235378e-07,33.75933333333333,0.0112348663642369,4.166667796948303e-07,66.67699999999999,0.5632651832544475,2.0,-0.000570868210413469
S090,11463.0,11492.984375,W,-0.18030729166666692,39.346657628319015,-330.76,99.33,430.09,1.89,101.67511491902678,765.625,832.7880859375,0.4683748498798799,0.40232478717449166,0.3936121892873181,64.64230395791714,0.35741760670934364,65.76473218982953,0.15,112,3.416129808333333,0.002652167736952304,-3.030390796004477e-06,33.75266666666666,0.011234866364236902,-4.722223503208068e-06,67.648,0.3625502264054819,1.3400000000000034,0.00045631956822904894
S090,11493.0,11522.984375,W,-0.19275520833333357,33.25307216011643,-176.83,70.21,247.04000000000002,1.1400000000000001,172.56119107321777,1109.375,973.7711588541666,0.48594726901577384,0.44545837035824365,0.4076045792867832,64.6657645658179,0.36276914359765566,65.76473218982953,0.16875,123,3.412180891666666,0.0024400412182167793,-4.4271040655120146e-07,33.75,0.01712697677155563,-1.2916670170539444e-05,69.31766666666667,0.3225697168399753,1.25,0.0004764931848126039
S090,11523.0,11552.984375,W,0.4934010416666667,30.18685160873023,-65.99,65.11,131.1,0.5800000000000001,51.48999224852897,796.875,789.9332682291666,0.515573440183086,0.47761978573151903,0.3903123748998999,64.65654163816369,0.362799383138089,65.76473218982953,0.159375,112,3.411209691666666,0.0021611030123365785,-5.697534097637781e-07,33.74,0.012382783747338593,-1.2708336780691316e-05,68.67533333333334,0.7458942433228875,2.25,-0.0013112503556994245
S090,11553.0,11582.984375,W,-0.07540104166666654,30.13975595983372,-66.32,62.74,129.06,-0.6,89.28721968577607,1062.5,991.1783854166666,0.42090423288901346,0.4236075534914362,0.3054766312211496,64.62656091739152,0.3050256667109675,65.76473218982953,0.171875,120,3.4164286333333327,0.002361972491137229,2.354480239388109e-06,33.727333333333334,0.014360439485691684,-4.027778870383921e-06,66.87166666666666,0.4381862871225212,1.1799999999999926,0.00045635429046069083
S090,11583.0,11612.984375,W,-0.17964583333333325,29.884051095434938,-64.83,61.33,126.16,0.21000000000000002,196.13433593504115,1000.0,1014.0299479166666,0.4506505713965089,0.4046120827409878,0.3640755392276291,64.6414507223133,0.3362392720622864,65.76473218982953,0.13020833333333334,104,3.4152225333333326,0.002224401334941346,6.848500121663264e-07,33.72233333333334,0.013085190950925677,1.4236114972906537e-06,66.19766666666666,0.464748558063628,1.5499999999999972,-0.0003524653733901282
S090,11613.0,11642.984375,W,0.3500572916666666,42.59420516933183,-148.33,121.71,270.04,1.1949999999999998,178.8641423365166,906.25,910.83984375,0.4704817547973802,0.3529390488770295,0.4406619369860907,64.69008432893109,0.39432158929721145,65.76473218982953,0.190625,127,3.4126824749999995,0.0023879438538991125,9.23833366925238e-07,33.709666666666664,0.014487542541400198,-6.076390537215339e-06,67.35033333333334,0.249151671789607,0.730000000000004,-0.00026545146089720716
S090,11643.0,11672.984375,W,-0.29307291666666707,30.072879530658792,-64.79,59.61,124.4,0.51,71.08720975236419,640.625,680.9488932291666,0.3652063129816716,0.4030913530316532,0.2807402788462437,64.6481352770274,0.3007992738831551,65.76473218982953,0.08333333333333333,68,3.417303683333333,0.003529935200026972,4.620707416641686e-06,33.699999999999996,0.014142135623731487,-2.083333898473901e-06,67.646,0.6024206725093901,1.6899999999999977,0.0007877779914762324
S090,11673.0,11702.984375,W,-0.38801562500000003,32.24114708382761,-76.17,68.66,144.82999999999998,0.035,104.15995131145263,812.5,813.818359375,0.41770183910163583,0.37080407187923675,0.3376735664810024,64.61957370820795,0.32317761290436775,65.76473218982953,0.16041666666666668,120,3.420313433333334,0.0018886956333818829,1.3792334470577147e-06,33.69133333333333,0.017650936393165572,-7.777779887635437e-06,66.47933333333334,1.18667865162487,3.4499999999999886,-0.0016120837706390418
S090,11703.0,11732.984375,W,0.22563541666666656,30.639874376109077,-70.12,61.33,131.45,0.47,137.359261011192,812.5,849.267578125,0.6836254456937658,0.613717610595912,0.3197747009614738,64.63121631443472,0.3139841557824214,65.76473218982953,0.18125,125,3.432800358333333,0.0055640526564064135,9.214257924874558e-06,33.684333333333335,0.01563827214098762,-1.3854170424851985e-05,64.58766666666666,0.29782190800693065,0.9200000000000017,-0.0004679515158288619
S090,11733.0,11762.984375,W,0.2674166666666667,27.96298302729382,-55.58,54.76,110.34,1.09,115.71935950339146,750.0,807.6090494791666,0.5486241867288472,0.5077481262616556,0.4919093680637611,64.72817709614345,0.4627434245433282,65.76473218982953,0.26458333333333334,172,3.433003208333333,0.0037766140233808448,-5.311342369613218e-06,33.66666666666666,0.015776212754933374,-9.722224859544937e-06,65.90766666666667,1.0448339049288582,2.8599999999999994,0.0018231602167860812
S090,11763.0,11792.984375,W,-0.16025520833333334,54.489909519709414,-444.28,210.29,654.5699999999999,1.525,218.24500512768577,1125.0,1063.4765625,0.49789487400008003,0.45111623709970805,0.4721359194012767,64.69902766184033,0.43706743845210116,65.76473218982953,0.22604166666666667,162,3.4225333583333337,0.0036385804942674765,-5.617865022207276e-06,33.65999999999999,0.010000000000000378,1.0416669492379127e-06,66.593,0.3626582413237015,1.1200000000000045,-0.0006235071135815745
S090,11793.0,11822.984375,W,0.13010416666666616,70.60325081698893,-331.29,223.01,554.3,3.635,59.51475238012887,937.5,895.5729166666666,0.5025931022098182,0.4782600118020415,0.4348019484489461,64.66795084243124,0.4068277779320151,65.76473218982953,0.20208333333333334,152,3.4101423916666667,0.003745540598044162,-5.261270741447075e-06,33.65699999999999,0.006403124237432426,-4.270834491869869e-06,65.67566666666667,0.6627653347067045,1.9300000000000068,-0.0009298266411205101
S090,11823.0,11852.984375,W,0.10733333333333327,31.59074675592874,-79.61,81.78,161.39,1.9649999999999999,128.4434385388624,734.375,777.63671875,0.493128784663691,0.4951051638428839,0.4525966747557918,64.67648831528523,0.40797369536131545,65.76473218982953,0.17708333333333334,130,3.403461233333333,0.003290306337646317,-4.519846712198003e-06,33.65466666666666,0.006699917080745928,-3.4027787008398993e-06,65.56366666666666,0.3185015262478692,0.960000000000008,0.0005425348693942237
S090,11853.0,11882.984375,W,-0.6850260416666668,29.207316176404987,-72.09,61.16,133.25,1.895,81.60853386429122,1078.125,1011.71875,0.4145728641894235,0.49738792532980625,0.48946807153843597,64.8198451335726,0.46003825166894885,65.39113089708727,0.25729166666666664,152,3.3966841333333324,0.0023492504440542536,-1.4676935404984912e-06,33.648666666666664,0.012036980056843415,-2.5694451414502155e-06,65.15466666666666,0.6717476377992613,2.030000000000001,0.00024618062233632183
S090,11883.0,11912.984375,W,0.46228125,43.78118023434916,-120.87,150.44,271.31,4.525,65.80659274963055,906.25,932.4381510416666,0.46635848268794255,0.49052546761100996,0.4348019484489461,64.90249090079497,0.4120678005184832,65.76473218982953,0.23125,134,3.397698041666666,0.0026505490229882292,-5.647026271437181e-07,33.639333333333326,0.009977753031395193,-1.6666671187787257e-06,63.702666666666666,1.363654240960255,4.460000000000001,-0.0024476395528536107
S090,11913.0,11942.984375,W,0.19172916666666637,55.43683716091508,-158.33,188.65,346.98,3.585,0.0,906.25,906.25,0.39208753982865724,0.4976986970603355,0.46351240544347894,64.84915950611804,0.4342748938096045,65.39113089708727,0.22291666666666668,116,3.3939092666666664,0.0027538177037625348,-3.028141446436029e-06,33.632999999999996,0.010692676621562518,-8.298613362253394e-06,61.79,0.5947268280479705,1.6599999999999966,0.0008654169014260263
S090,11943.0,11972.984375,W,0.09967708333333336,56.359108389304666,-155.86,133.55,289.41,0.02,91.56253419773473,812.5,829.248046875,0.36095065211727884,0.4856937692620732,0.44111108924573134,64.87130225648399,0.40642983965689294,65.39113089708727,0.19895833333333332,119,3.3932581999999996,0.0018847916224347698,3.7972232522852137e-07,33.624,0.011718930554165412,-9.23611361656744e-06,66.34266666666667,2.2840372637551742,7.809999999999995,0.004088681664681441
S090,11973.0,12002.984375,W,0.08873958333333327,30.141627388721343,-69.55,60.15,129.7,1.075,64.04026545040497,812.5,797.265625,0.35276068965612745,0.4994745502914926,0.49209793056249373,64.80614943084223,0.4535463379652948,65.39113089708727,0.23958333333333334,128,3.3919454250000003,0.002149443267695536,-8.746497598333562e-07,33.61866666666667,0.009910712498213887,1.4583337289319031e-06,70.59266666666666,0.5230419571018071,1.519999999999996,-0.0006831251853095668
S090,12003.0,12032.984375,W,-0.23458854166666654,32.05204323858624,-69.15,61.11,130.26,-1.4449999999999998,156.5122235067445,1156.25,1060.107421875,0.33227533920179314,0.49859176687947826,0.4706627640891087,64.85579291303159,0.4355080810140751,65.39113089708727,0.24375,131,3.3872601416666677,0.0030960333635579275,-4.23007948949636e-06,33.61733333333334,0.013148721948877926,-9.097224690002916e-06,68.32,1.5108231751818832,4.88000000000001,-0.0026930562860938284
S090,12033.0,12062.984375,W,0.21469270833333312,30.509358001025497,-63.73,60.07,123.8,1.5750000000000002,151.66706179473044,734.375,818.5709635416666,0.4040592640800219,0.46759116015548835,0.4905254676110101,64.8136264627798,0.44143675642092745,65.76473218982953,0.24270833333333333,139,3.384218441666667,0.002741740374275237,1.3584480681554584e-06,33.616666666666674,0.014907119849998597,-8.888891300154168e-06,64.386,0.6328591207106579,2.4499999999999957,-0.001075833625171882
S090,12063.0,12092.984375,W,0.1885625000000001,75.25550364851682,-597.13,375.32,972.45,3.36,108.7843176527821,750.0,788.232421875,1.924616664573898,0.855207064554479,0.6479727668638724,64.8782784701137,0.47502570567088886,67.03730304837748,0.11458333333333333,65,3.3909101833333333,0.005132499326162201,-1.654738296098662e-06,33.61533333333334,0.01359738536958112,2.5000006781694213e-06,64.85833333333333,1.4942000832849958,4.1100000000000065,0.0026675354458375227
S090,12093.0,12122.984375,W,-0.4405885416666667,81.73759895695108,-437.55,433.16,870.71,4.145,0.0,750.0,750.0,0.6503129254763946,0.5422983096020328,0.5010568258275037,64.61234251561909,0.43587419169748726,65.95452979136459,0.24479166666666666,147,3.360482683333333,0.0076669791943364835,-1.3274859937841735e-05,33.61000000000001,0.008944271909998969,9.72222485954084e-07,66.73966666666666,0.3303380423478678,0.9799999999999898,0.0004269792824922079
S090,12123.0,12152.984375,W,0.010385416666666931,92.6740690789129,-848.27,355.15,1203.42,5.605,63.885070391813876,765.625,794.2708333333334,0.4755650422129448,0.47729594061814057,0.49749371855330987,64.67662573587153,0.4503703165164051,65.54387843269576,0.34270833333333334,202,3.3354128333333333,0.00920418447712174,-1.585005204265734e-05,33.61533333333334,0.01146976702272425,2.916667457863757e-06,65.80633333333334,0.8680302734096063,2.739999999999995,-0.0015582990338267782
S090,12153.0,12182.984375,W,-0.03161458333333318,38.084784435757555,-99.67,72.61,172.28,3.37,69.56406436930817,781.25,810.1806640625,0.5385769250224769,0.5628461512087967,0.49914858064063,64.63005033917001,0.4393762507046815,65.54387843269576,0.28125,164,3.3101399249999996,0.004228074540423264,-6.475290602021213e-06,33.610666666666674,0.009637888196533955,-4.513890113359593e-06,64.38166666666666,0.32558750317268337,1.0399999999999991,-0.0004109376114739625
S090,12183.0,12212.984375,W,-0.3289322916666669,39.06301652665962,-90.29,77.48,167.77,2.215,80.53650539416307,1046.875,1008.4309895833334,0.44837670174382016,0.49808225977241954,0.43719111119547405,64.74545477949529,0.40830184463251085,66.07571414672717,0.209375,109,3.3001930833333337,0.005095928936552055,-8.35746320460696e-06,33.60600000000001,0.009521904571389168,-5.277779209465843e-06,64.85066666666665,0.44734724270476395,1.3199999999999932,-0.00036902787788299835
S090,12213.0,12242.984375,W,0.10067187499999987,37.57212601168807,-89.75,67.35,157.1,3.9699999999999998,65.27639927547098,734.375,738.5498046875,0.4132988896939142,0.4600535898735663,0.38349181506548774,64.76372784974515,0.3696462328726897,65.21502894272147,0.20104166666666667,127,3.290534375,0.005056123930546184,-6.834107973662155e-06,33.601333333333336,0.01231079020841163,-4.3750011867946985e-06,65.99600000000001,0.9089063024683383,2.9299999999999926,0.0016272226636346195
S090,12243.0,12272.984375,W,0.5302291666666669,43.32956826691772,-94.41,84.05,178.45999999999998,4.675000000000001,37.370458014348024,921.875,912.98828125,0.4150685498103496,0.448589610767892,0.295032660621385,64.78757565396606,0.29268734448583744,65.37583651472461,0.10833333333333334,75,3.2765852916666662,0.003783834753253745,-5.031085349144284e-06,33.59266666666668,0.011234866364234344,-1.3888892656412952e-07,67.23533333333334,0.29244638634951203,1.0,-2.152778361754769e-06
S090,12273.0,12302.984375,W,0.3530416666666674,97.65033324005657,-696.0,429.8,1125.8,1.775,48.55784502688962,687.5,718.7581380208334,16.372591929595497,3.753775732281284,16.97065366853911,64.77045810388599,1.8453902964095903,81.88406438373708,0.04375,19,3.2931811916666667,0.02642354450463191,2.4505115805424173e-05,33.59000000000001,0.013662601021279173,-8.888891300155403e-06,68.33099999999999,0.1552492619413476,0.6199999999999903,-2.3506950821111364e-05
S090,12303.0,12332.984375,W,-0.27297395833333327,100.8112975701144,-307.0,430.36,737.36,0.025,0.0,687.5,687.5,0.416411380127873,0.4907731552668255,0.7183415203999804,64.6832655849511,0.39017508892072045,65.94694837519019,0.196875,125,3.2269789333333327,0.008055175738547795,-1.2453412666398848e-05,33.545,0.02704933763822477,-4.29514005402023e-05,71.72800000000001,2.646212891410414,8.200000000000003,0.004622987365176694
S090,12333.0,12362.984375,W,1.4057760416666671,180.7205596564009,-811.09,518.2,1329.29,2.635,0.0,687.5,687.5,0.42953943155883706,0.734172548926492,0.5559329230496747,64.71027431167549,0.36254678922227096,65.90902821313632,0.17604166666666668,109,3.2259970499999993,0.004072615473807988,6.2500763482195576e-06,33.48766666666667,0.013337499349161916,-1.7604171442103403e-05,80.905,1.771834736461991,5.849999999999994,0.002877535502803684
S090,12363.0,12392.984375,W,-3.031869791666667,143.1354579621525,-472.84,551.61,1024.45,-4.645,0.0,687.5,687.5,0.3889742899779996,0.43957716227895893,0.8572600237173602,64.73873467636572,0.36711601679685196,65.76473218982953,0.18541666666666667,119,3.233467808333334,0.002886204731984565,2.8287778940911263e-06,33.444,0.022597935008904967,-3.1041675087261175e-05,82.14466666666667,1.000035777137775,3.6599999999999966,-0.001068889178843634
S090,12393.0,12422.984375,W,2.0425989583333335,94.67431714592664,-298.36,314.98,613.34,2.0949999999999998,0.0,687.5,687.5,0.47324121572818323,0.49171852657287585,0.3490065265228654,64.81252122879437,0.4276976740783157,65.63535632568775,0.2604166666666667,165,3.2311945583333332,0.00437908766715135,-6.578325352193251e-06,33.39766666666665,0.017065234314892225,-2.1354172459354156e-05,76.57766666666666,1.3611776355625134,4.349999999999994,-0.0019190630205791622
S090,12423.0,12452.984375,W,-0.06440624999999897,111.23180031077726,-688.89,450.4,1139.29,-0.44,0.0,687.5,687.5,0.37078651389834677,0.4856937692620732,1.0005185287584077,64.80297572026367,0.3555574949981051,66.06814663663572,0.1125,74,3.2279074,0.0033628044531313784,4.716862824669917e-06,33.35933333333334,0.019310331143945026,-2.6458340510614276e-05,79.18333333333334,1.018162833517093,3.3799999999999955,0.0016934032371428045
S090,12453.0,12482.984375,W,-1.0793541666666655,142.99303826148167,-436.32,471.41,907.73,4.475,0.0,687.5,687.5,0.3807658583550906,0.4967068198953539,0.4342088511176262,64.86367266397643,0.3576686648962865,66.06814663663572,0.12291666666666666,77,3.2409065833333335,0.0031400141071428306,1.9553125963847733e-06,33.322333333333326,0.014302291968615523,-1.746528251553718e-05,81.171,1.3805997489014208,3.75,0.002332813132816063
S090,12483.0,12512.984375,W,0.861546875,128.12787657808607,-405.48,468.29,873.77,-3.0949999999999998,0.0,687.5,687.5,0.44905378915621624,0.49808225977241954,0.25535709949772084,64.90546200663078,0.4066653486664691,65.94694837519019,0.0020833333333333333,2,3.2472887750000003,0.00276068211819253,3.3443713499270672e-06,33.292666666666676,0.013399834161494614,-1.4305559436186262e-05,84.025,0.4349540205584959,1.480000000000004,0.0007539238156260363
S090,12513.0,12542.984375,W,0.22213541666666667,131.02451444617782,-381.91,372.05,753.96,7.24,0.0,687.5,687.5,0.49960813637345375,0.4994256684071103,0.5347921130370816,64.79150962290292,0.4447255167833541,65.70388116390082,0.17083333333333334,106,3.265816566666666,0.006183130410955959,1.0014918081303674e-05,33.26266666666666,0.015040685563572362,-1.7152782430770064e-05,88.69699999999999,1.9329082578677488,5.849999999999994,0.003431355097481309
S090,12543.0,12572.984375,W,-2.3635729166666666,145.67862142059522,-445.79,411.88,857.6700000000001,1.825,0.0,687.5,687.5,0.501965537703204,0.49052546761100996,0.515552393877997,64.79262934514003,0.4570913949073315,65.94694837519019,0.2375,138,3.277054908333333,0.0021971320207482743,1.3129254863622047e-06,33.24066666666667,0.01526069752301423,-5.694445989162917e-06,99.63799999999999,6.874811706512405,21.980000000000004,0.012184239416297583
S090,12573.0,12602.984375,W,-1.7762499999999994,165.9007244989329,-499.61,505.76,1005.37,-1.5750000000000002,0.0,687.5,687.5,0.4722496672988652,0.47729594061814057,0.33070414931627334,64.9054408991261,0.4370736284799585,66.24198064671678,0.020833333333333332,16,3.2808222666666675,0.0024045631922565967,-1.106462973758411e-06,33.22233333333333,0.016669999666732566,-1.0659725113857478e-05,126.12366666666667,7.050716976938509,24.110000000000014,0.012711565948232953
S090,12603.0,12632.984375,W,3.09665625,134.22999679330934,-450.95,393.61,844.56,7.859999999999999,0.0,687.5,687.5,0.480880088714663,0.4587107820808469,0.8565762507003617,64.81429672008989,0.40909332286476424,65.70388116390082,0.22395833333333334,138,3.282167025,0.005928963431694875,9.328792678166403e-06,33.20733333333333,0.015477582354991297,2.2916672883216366e-06,143.5896666666667,1.9866445468567233,6.700000000000017,0.0033871884188336632
S090,12633.0,12662.984375,W,-0.584291666666667,143.25422600012223,-484.95,387.78,872.73,10.45,0.0,687.5,687.5,0.30800764048513835,0.49997287252798917,0.49537794213666353,64.86210803871174,0.3140182178646252,65.92419889539804,0.16041666666666668,87,3.2967991833333334,0.003968773576272924,5.168987513288681e-06,33.196666666666665,0.01972026594366563,-8.958335763438269e-06,146.012,0.6266918434658855,1.8500000000000227,-3.437500932481789e-05
S090,12663.0,12692.984375,W,0.9615416666666656,147.59312701053616,-457.81,523.91,981.72,-6.5600000000000005,0.0,687.5,687.5,0.32414249856351757,0.4952508833914383,0.5915630411014723,64.85298032407101,0.3248483015055893,65.92419889539804,0.18229166666666666,93,3.3105135083333335,0.005486606282569492,8.923045606294997e-06,33.183,0.018645821694596987,5.659723757521003e-06,145.12600000000003,0.4755039432013144,1.5600000000000023,-0.0005745140447357949
S090,12693.0,12722.984375,W,-0.828875,130.3079339934873,-551.2,445.31,996.51,10.56,0.0,687.5,687.5,0.3037936496986437,0.4841229182759271,0.24206145913796356,64.74032026410367,0.3167129635624544,65.70388116390082,0.08229166666666667,68,3.3161166166666667,0.0028713868373526313,-1.963297841606357e-06,33.18266666666667,0.015477582354993032,1.4583337289319027e-06,142.49666666666664,1.3743903699054676,4.519999999999982,-0.0024595145560749117
S090,12723.0,12752.984375,W,-1.6653802083333342,139.35701301670747,-496.57,451.37,947.94,-2.7199999999999998,0.0,687.5,687.5,0.37339936172057564,0.4994256684071103,0.40594406215293044,64.7682061440023,0.3627067980574826,65.92419889539804,0.13229166666666667,104,3.309883849999999,0.0025114913652052127,-2.3235041025131153e-06,33.17933333333333,0.018427033281447933,-1.458333728931726e-05,133.31933333333333,5.074817522718317,16.55000000000001,-0.008987641326942634
S090,12753.0,12782.984375,W,2.945854166666666,162.64818811817292,-591.69,421.31,1013.0,-1.295,0.0,687.5,687.5,0.36226045725263595,0.31144091367117027,0.5232350873147005,64.74725800936359,0.3428997942603887,65.70388116390082,0.14479166666666668,100,3.3092968749999994,0.0032837922172454805,4.927889791636405e-07,33.190666666666665,0.01842703328144776,1.3194448023668345e-05,109.29366666666665,8.508302801120534,27.799999999999997,-0.015317816655223696
S090,12783.0,12812.984375,W,0.5222447916666676,160.06655508989482,-433.44,464.54,897.98,1.96,0.0,687.5,687.5,0.42019211669253814,0.232399078305449,0.31280540631872433,64.75552891944224,0.388125018448785,65.70388116390082,0.21979166666666666,133,3.308240283333333,0.0028333368848507327,-3.012264706017975e-06,33.190999999999995,0.01850225211517086,-1.1458336441608915e-06,83.88033333333334,4.773678863192297,14.540000000000006,-0.00809677302972359
S090,12813.0,12842.984375,W,-3.420598958333334,123.21846525288596,-559.63,399.62,959.25,-8.065,0.0,687.5,687.5,0.34979532706045874,0.13615185047912087,0.46677361125782024,64.73802116350898,0.32124627063574407,65.70388116390082,0.14270833333333333,102,3.303074725000001,0.0024477832963809266,-6.364639313324097e-07,33.18533333333333,0.018208667044997736,-1.3194448023671578e-06,82.27266666666668,1.6137842345107842,4.320000000000007,0.0028404868816424927
S090,12843.0,12872.984375,W,-0.372041666666667,193.4727400458049,-576.07,652.47,1228.54,-4.71,0.0,687.5,687.5,0.31446603773522014,0.34943996613231804,0.45719081082191493,64.78967349345635,0.2873736440943509,66.01514977639603,0.14479166666666668,82,3.3057428166666667,0.00447211137119691,-3.608199763508787e-07,33.187,0.018101565309848067,-6.00694607393267e-06,83.494,1.1331419446241795,4.1299999999999955,-0.001376319817795088
S090,12873.0,12902.984375,W,3.0338749999999997,98.7653924943738,-411.37,359.65,771.02,-1.93,0.0,687.5,687.5,0.2100321362646414,0.18652524404666157,0.18113022862631797,64.79844267553845,0.20502477482342701,65.70388116390082,0.040625,31,3.302893266666667,0.0023756986647206434,1.427124519076734e-06,33.17766666666666,0.01706523431489515,-1.7361115820601823e-07,79.526,0.47209179898264136,1.4500000000000028,0.00043888900794515347
S090,12903.0,12932.984375,W,-0.4026562500000009,94.91639831554048,-317.2,350.31,667.51,0.89,0.0,687.5,687.5,0.23510303592255036,0.12426432820358738,0.14707433282187615,64.80502923933872,0.21856033900942695,65.70388116390082,0.04479166666666667,38,3.2997662000000005,0.0028250939058139125,-3.0896071749152005e-06,33.17399999999999,0.018547236990993005,4.3750011867955625e-06,80.39799999999998,1.188294015244825,3.1000000000000085,0.001988333872703416
S090,12933.0,12962.984375,W,1.0707447916666666,141.23684747215356,-487.49,417.58,905.0699999999999,-2.4450000000000003,0.0,687.5,687.5,0.30786669362187696,0.2530285309999645,0.4999902342796308,64.86417659072413,0.2941290091497542,65.92419889539804,0.04583333333333333,37,3.301057641666667,0.002882283344838029,2.8402379666444424e-06,33.175666666666665,0.014067298564007102,-1.2395836695920329e-05,78.49666666666666,1.5986438697290346,5.1200000000000045,-0.002067570005308704
S090,12963.0,12992.984375,W,-0.005515625000000076,117.90036644011458,-338.42,440.69,779.11,-2.71,0.0,687.5,687.5,0.3026503299555812,0.43119338396478213,0.26963677986423806,64.79090075451944,0.3038164215675941,65.70388116390082,0.09583333333333334,71,3.3060523749999997,0.002800059353723537,3.1587068030345184e-06,33.16866666666666,0.010873004286868021,1.6666671187790224e-06,80.72166666666666,0.8274542619115299,3.4199999999999875,0.0012188544973021095
S090,12993.0,13022.984375,W,-0.7854010416666657,142.3455895166379,-440.84,491.42,932.26,-2.665,0.0,687.5,687.5,0.41957190277379425,0.4952508833914383,0.5015070603662747,64.73224071448726,0.39729764033122483,65.70388116390082,0.20729166666666668,134,3.303949866666667,0.0028378806057024167,-2.9233358624499946e-06,33.17066666666666,0.012631530214332356,4.861112429772757e-07,87.59033333333333,2.046643566644884,7.200000000000003,0.0036295495956894528
S090,13023.0,13052.984375,W,-0.021916666666666865,97.47588485787851,-437.81,378.91,816.72,-4.745,91.9641634296128,687.5,715.6982421875,0.4901094247858216,0.4659918856589672,0.4601467440302785,64.79410721614109,0.4410253921789232,65.70388116390082,0.228125,146,3.3036937250000005,0.003068358738702942,3.7809500273843467e-06,33.17533333333333,0.015216949614019142,4.652779039925672e-06,97.08766666666665,3.5000654120871633,11.989999999999995,0.006305244765962663
S090,13053.0,13082.984375,W,-0.37555729166666674,62.364954437416955,-172.79,164.03,336.82,0.94,68.8233028112539,781.25,803.5888671875,0.48924966466518915,0.4254083006033406,0.14049376592535662,64.86808977616349,0.45379377650112235,65.49809157525127,0.00625,6,3.3135338666666665,0.0033608095203719,-1.5886475663649148e-06,33.16566666666666,0.013828312341795091,4.687501271566302e-06,108.53566666666666,3.1674771068189616,10.049999999999997,0.005695522378342658
S090,13083.0,13112.984375,W,-0.13426041666666708,119.8036926900058,-372.5,401.69,774.19,1.685,51.56166769569739,765.625,777.83203125,0.49300664859163457,0.16862135013758553,0.46658760490989853,64.81534931434845,0.4468332190586625,65.49809157525127,0.4010416666666667,197,3.30131365,0.0037938102563034506,-5.268788755639305e-06,33.16233333333332,0.010546194679704534,-3.159723079352272e-06,113.23833333333332,1.1599944923240895,4.019999999999996,-0.0016833685121984904
S090,13113.0,13142.984375,W,-0.020807291666667106,95.79301278192405,-285.95,334.65,620.5999999999999,-0.63,0.0,765.625,765.625,0.4254083006033406,0.10642856726723118,0.44779067995611016,64.7358801426714,0.38755277534847704,65.49809157525127,0.234375,147,3.292017875,0.003813544435217035,-4.4547774671162584e-06,33.16333333333333,0.00977525219907767,-5.694445989161906e-06,100.84666666666668,5.568051923448831,18.090000000000003,-0.010034377721999162
S090,13143.0,13172.984375,W,-0.02530208333333377,111.69687629273515,-309.59,458.41,768.0,1.92,0.0,765.625,765.625,0.4406619369860907,0.09668440031302303,0.48465605645194976,64.738031398063,0.4054306805622012,65.49809157525127,0.259375,148,3.2873218583333332,0.0027116708757266607,-1.1533972312818107e-06,33.15966666666666,0.01015983376941913,-6.909724096604728e-06,83.69366666666664,3.5142609306778705,12.719999999999999,-0.006232953079685622
S090,13173.0,13202.984375,W,-0.2544322916666661,127.88868917274718,-407.22,429.02,836.24,-9.105,0.0,765.625,765.625,0.4527009510059225,0.10663227798529547,0.49914858064063006,64.7387280704351,0.41231600614460684,65.81033353509159,0.28020833333333334,169,3.2827327250000007,0.002961070670558429,-3.4480528016635566e-06,33.149333333333324,0.010624918300338055,-2.0138894351905403e-06,76.69699999999999,0.5231707815490724,1.9000000000000057,-0.0007012154679946484
S090,13203.0,13232.984375,W,1.629744791666667,131.53435778298683,-450.76,337.72,788.48,8.225,0.0,765.625,765.625,0.4795107460271934,0.10204080746882047,0.43420885111762625,64.75771678923647,0.43850075451108494,65.81033353509159,0.35520833333333335,185,3.2754646333333333,0.002576281544957628,-2.0753399726942926e-06,33.14166666666666,0.012405196043950401,-5.243056977824916e-06,83.343,2.50129852943093,9.969999999999999,0.004343438678233147
S090,13233.0,13262.984375,W,-0.6362395833333335,80.02252193865029,-332.87,311.22,644.09,0.8200000000000001,147.7543006897871,468.75,602.9622395833334,0.46351240544347894,0.10691682092740235,0.481018838782733,64.73427194198459,0.42214074412758307,65.49809157525127,0.30833333333333335,167,3.273191358333333,0.0021821957435720824,4.5140789154945917e-07,33.131,0.010440306508909902,-5.312501441107757e-06,95.64033333333333,4.150055006328899,13.189999999999998,0.007431356182551048
S090,13263.0,13292.984375,W,-0.3957864583333324,104.3391468212266,-458.3,336.07,794.37,4.0649999999999995,0.0,468.75,468.75,0.44457449811589506,0.13691479000539797,0.38670954324057394,64.75620685986664,0.4022413730073311,66.4304147209695,0.225,151,3.275443325,0.00291063828670656,2.9853070164136677e-06,33.124,0.01171893055416525,3.1250008477114183e-06,105.03933333333333,2.866030859723757,8.400000000000006,0.005119376388719725
S090,13293.0,13322.984375,W,0.06391145833333348,103.25688232491291,-300.97,344.09,645.06,-4.145,0.0,468.75,468.75,0.3993144624610478,0.49830332790101073,0.7327997289221205,64.78936537021629,0.36743696686464017,66.1362230551458,0.14791666666666667,108,3.2803953666666663,0.005121486755056795,7.768546378186378e-06,33.11800000000001,0.011075498483891898,-4.166667796947581e-06,111.034,0.4667019034315877,1.8900000000000006,0.0007817363231706615
S090,13323.0,13352.984375,W,-0.24665104166666604,99.23246056337393,-374.51,284.3,658.81,-1.9,0.0,468.75,468.75,0.38863520991913336,0.4990224819584785,0.5843879974787488,64.87809418681141,0.34847719279006845,66.15889962809237,0.23854166666666668,113,3.292551491666666,0.0030505152952570195,3.6587555497926035e-06,33.11133333333334,0.012578641509408761,-5.000001356337585e-06,111.50633333333334,0.4793501387874583,1.3500000000000085,-0.0008253127238804049
S090,13353.0,13382.984375,W,-1.4788593749999992,188.18507218017956,-540.22,471.86,1012.08,7.74,0.0,468.75,468.75,0.48984368077706403,0.4946545862743236,0.6001157295796278,64.83200172192765,0.4331216857145073,66.15889962809237,0.06979166666666667,51,3.2959453916666672,0.0030480184992216046,1.5924863260867565e-06,33.106666666666676,0.011642832797714426,-6.8750018649638e-06,112.36033333333334,1.0145293928166343,3.0600000000000023,0.0017967713207387482
S090,13383.0,13412.984375,W,3.3160885416666672,201.52978817855745,-631.22,607.32,1238.54,13.77,0.0,468.75,468.75,0.3289028478644314,0.4155075021885886,0.5417618105542324,64.83711785135199,0.3165944775690909,65.92419889539804,0.06041666666666667,50,3.2960414000000005,0.0025240817287348546,5.627310554283417e-07,33.09066666666668,0.013148721948876963,2.0833338984709541e-07,113.17466666666668,0.484848659090878,1.6500000000000057,-0.0008693752358331262
S090,13413.0,13442.984375,W,-3.586270833333333,171.80920696356026,-587.28,533.0,1120.28,-3.52,0.0,468.75,468.75,0.33330729064933456,0.26672362672915867,0.4382322740758223,64.79648065676801,0.30353939407509917,65.70388116390082,0.103125,78,3.300705375,0.00369981487614022,5.1039647091918576e-06,33.08666666666667,0.01273664878302879,8.263891130613183e-06,106.56566666666667,4.481124623226727,14.5,-0.007927675761630794
S090,13443.0,13472.984375,W,2.706552083333334,199.20221178121628,-550.0,568.71,1118.71,1.835,0.0,468.75,468.75,0.36791778737088654,0.3518906647391425,0.2958021550471794,64.82625521702214,0.3406017285800481,65.70388116390082,0.12708333333333333,92,3.3124879499999995,0.0033638812524870317,4.059516292186598e-06,33.07866666666667,0.012310790208414246,-2.291667288320995e-06,94.30199999999999,1.3820091654302928,5.549999999999997,-0.0024044450966919212
S090,13473.0,13502.984375,W,-1.135229166666666,152.27626415447457,-594.41,416.66,1011.0699999999999,10.205,0.0,468.75,468.75,0.4341688659573215,0.4969426928032603,0.5303137174247795,64.76421389397787,0.40790974706707056,65.92419889539804,0.24375,152,3.30901935,0.003715526164286895,-5.125929775914227e-06,33.07866666666667,0.013349989596335389,-9.097224690003605e-06,92.76600000000002,2.7577957381454725,8.969999999999999,0.004574723463195382
S090,13503.0,13532.984375,W,0.20113020833333325,127.01219041199896,-469.65,341.28,810.93,2.025,0.0,468.75,468.75,0.3860847250676406,0.4746149298085999,0.5378864486090184,64.77132935938934,0.3664260055017055,65.92419889539804,0.16041666666666668,108,3.3078986499999994,0.0023100177259421065,-2.3954129761860386e-07,33.07866666666667,0.011175369742828553,4.236112260230767e-06,101.60799999999999,1.3392520300525952,5.640000000000001,0.0023113200714301387
S090,13533.0,13562.984375,W,0.20740625000000004,44.932397031095064,-207.78,163.47,371.25,1.1949999999999998,3.875612272067271,468.75,469.23828125,0.3580531244530001,0.48968416514853963,0.5759917473849391,64.81137545590946,0.3478910458802925,65.92419889539804,0.13645833333333332,95,3.3068954833333333,0.0028941737507831348,2.6448344848184124e-06,33.06333333333333,0.012995725793080648,-6.2500016954224435e-06,108.12899999999999,1.082846095558675,3.8599999999999994,0.0016639240624794003
S090,13563.0,13592.984375,W,1.3223020833333334,49.2326508403002,-235.22,481.55,716.77,1.23,0.0,468.75,468.75,0.4133146417144637,0.47103494024387993,0.6345930454498642,64.84678664690719,0.3672690709818982,66.15889962809237,0.18020833333333333,92,3.308272233333333,0.0030650937743494475,8.580050070543426e-07,33.06133333333334,0.016069294390926855,-1.3263892486951383e-05,107.66000000000001,0.7251022916343134,2.3200000000000074,-0.0012673614549049085
S090,13593.0,13622.984375,W,-2.302385416666666,176.20899639005083,-650.62,561.63,1212.25,-11.345,0.0,468.75,468.75,0.3748133215904508,0.5984563113521506,0.6078470873478149,64.82857123952957,0.3308716386143844,66.15889962809237,0.13541666666666666,74,3.3097878083333327,0.002750828027751673,-9.257782459251063e-07,33.048,0.011944315244778647,2.0833338984753812e-07,106.68633333333334,0.3467706574796792,1.3900000000000006,-4.5243067828524705e-05
S090,13623.0,13652.984375,W,0.7409739583333336,123.09944850412676,-399.53,402.75,802.28,1.625,0.0,468.75,468.75,0.46387628371929324,0.47505482139783967,0.36887209607652477,64.84700264771318,0.4077347268514665,66.55824516917495,0.03958333333333333,35,3.3194038000000003,0.005410818954649989,7.91284199024571e-06,33.03999999999999,0.012382783747336491,-2.2916672883204045e-06,110.09833333333333,1.0851945550094801,3.3900000000000006,0.001828299107068987
S090,13653.0,13682.984375,W,0.016843749999999928,111.54688566471239,-400.59,445.6,846.19,3.865,0.0,468.75,468.75,0.4081831675411039,0.474056766335355,0.5190636601933653,64.83797669281333,0.36700824086667994,66.23443213314356,0.11666666666666667,77,3.321709116666667,0.00494176941520498,-8.555306140219804e-07,33.02299999999999,0.016155494421403332,-4.340278955153451e-06,109.34633333333335,0.7400697414583453,3.1700000000000017,-0.0009719099858696789
S090,13683.0,13712.984375,W,0.7173749999999999,198.7459362668544,-987.79,698.22,1686.01,-4.785,0.0,468.75,468.75,13.61516448644876,6.4926072241980215,17.61391344453575,64.78570343880388,1.5391166100575717,95.28903399657277,0.03854166666666667,18,3.329297283333333,0.0712902017961542,-1.3037043901107849e-05,33.00633333333333,0.017220788470785942,-1.1423614209965504e-05,103.196,2.2461590920205707,7.760000000000005,-0.004040695540553263
S090,13713.0,13742.984375,W,0.07012499999999981,115.32000050396451,-710.32,648.55,1358.87,6.81,142.6742540864229,687.5,657.6009114583334,9.043756418929611,9.66928641764163,5.7294082335436025,64.58796709746859,2.1366655212384478,83.48652585896721,0.06458333333333334,30,3.2310878916666668,0.03192716742102141,3.829710565785202e-05,32.94166666666667,0.03099283071220835,-5.010418025829692e-05,100.307,1.3273209860467072,3.6500000000000057,0.0022973964565420092
S090,13743.0,13772.984375,W,-1.7181979166666659,203.4974721167276,-887.02,788.01,1675.03,14.98,0.0,687.5,687.5,21.367653769287976,17.161908947043077,13.531623840101378,65.55970724960723,10.19736454576038,117.99152511939153,0.103125,41,3.3275576916666667,0.023133758646112758,1.6180891976153105e-06,32.91533333333333,0.013597385369581121,3.4722231641235806e-06,103.02933333333334,0.9855622196943682,2.950000000000003,0.0016920143478771574
S090,13773.0,13802.984375,W,1.9035937500000004,131.1253709277466,-519.02,559.17,1078.19,7.555,37.057079923109264,687.5,701.9694010416666,20.620693889708356,12.88801084604247,9.353157657161683,64.68116147539841,6.1359983045495685,117.61802582937702,0.09895833333333333,39,3.3688179999999996,0.03946687592230561,3.855933771683428e-06,32.911333333333324,0.017074997966487898,1.250000339084341e-05,98.80566666666667,5.101057199792564,14.049999999999997,-0.009063370514152154
S090,13803.0,13832.984375,W,-0.09146875000000006,100.46014210936814,-487.75,391.69,879.44,9.940000000000001,0.0,796.875,796.875,10.595281917671212,13.806321519104532,7.584798107160723,64.72114842114514,3.335576718965114,82.28608630868283,0.12708333333333333,56,3.4259165333333335,0.016163527681137192,2.5075076246494175e-05,32.93533333333333,0.011469767022725296,-1.1111114125195447e-06,88.48166666666665,1.9090767111064149,5.950000000000003,-0.0034263550961249694
S090,13833.0,13862.984375,W,-1.623984375,157.06152429034302,-622.43,350.12,972.55,14.02,0.0,796.875,796.875,14.741612750454918,16.29977283280481,21.70906068839051,65.84396098488494,6.159502292199844,94.38749917229505,0.11041666666666666,50,3.4226827250000005,0.025543784392346964,-3.292878085090629e-05,32.93266666666666,0.016110727964794732,-1.3472225876799514e-05,83.99199999999999,0.42596869994558634,2.069999999999993,-0.0005837501583523637
S090,13863.0,13892.984375,W,0.11507812499999849,281.48991482913686,-953.93,946.12,1900.05,-1.4500000000000002,0.0,796.875,796.875,21.8558245319691,28.06637400567428,21.371741852885762,66.07998939198323,10.566239568647394,123.51922927220684,0.11041666666666666,47,3.5271779666666663,0.9402431173190876,0.0007319042679861836,32.940666666666665,0.017688665548562934,2.1527783617564245e-05,79.70533333333333,1.5831587272145378,4.930000000000007,-0.002649375718689159
S090,13893.0,13922.984375,W,1.2079010416666682,74.90032108451288,-422.06,304.79,726.85,2.6,0.0,796.875,796.875,4.403424404298886,5.818334511959204,7.882602081901458,64.70498014811227,2.165766384538929,90.05553841935541,0.05,25,3.6080933916666664,0.13832991693955768,-0.00020365066570384813,32.937999999999995,0.02103964511741375,-2.7500007459855963e-05,83.01266666666668,2.37046258964129,7.920000000000002,0.004255834487802324
S090,13923.0,13952.984375,W,-1.437838541666668,99.60842819440205,-507.88,342.48,850.36,0.96,0.0,796.875,796.875,4.3903390575137315,6.07956995106813,14.876696769472494,64.87128311718338,3.459582353922302,83.18653737234169,0.078125,37,3.4664511333333334,0.10446353810173299,0.00014043109755617876,32.86166666666667,0.02296132013239095,-2.690972952195144e-05,89.89933333333332,1.444054323385686,5.069999999999993,0.002566528473993185
S090,13953.0,13982.984375,W,-2.4387135416666665,247.54605981169027,-1094.08,1429.83,2523.91,-5.21,0.0,796.875,796.875,25.459800127378095,26.25727162427661,21.78254260471878,65.34372270348376,6.727120725111124,104.88565202161828,0.10833333333333334,62,3.7061939416666667,0.24887517522770647,-0.0002116459356678428,32.91266666666667,0.04081938537291139,7.062501915826338e-05,101.978,6.82492314975048,21.569999999999993,0.012263406104439588
S090,13983.0,14012.984375,W,4.243453124999999,205.27980066876327,-661.29,867.46,1528.75,9.445,0.0,796.875,796.875,12.285194447145175,14.513776979898173,15.789225810428716,64.95521049509705,4.50171314104989,84.4393273303382,0.10520833333333333,48,3.543313691666667,0.06965494549967907,7.880127680156162e-05,32.99166666666667,0.012405196043952595,1.239583669591949e-05,123.52333333333333,3.7554425689775752,12.209999999999994,0.005549168171974872
S090,14013.0,14042.984375,W,-4.672760416666665,290.20105281957274,-1340.39,1663.37,3003.76,1.075,0.0,796.875,796.875,25.695860612249724,27.68805866551374,23.200581978115633,65.39063169412191,6.69628902032305,103.32956982393762,0.11145833333333334,55,3.527402375,0.10789434161608155,-0.00015642359777115825,32.99966666666667,0.0190583898118969,1.7256949125690502e-05,111.19933333333333,8.847594751619724,27.950000000000003,-0.01590319875846321
S090,14043.0,14072.984375,W,6.244005208333334,229.34378597208683,-941.18,1128.01,2069.19,6.33,0.0,796.875,796.875,21.273231148517706,20.275205479803745,19.158111740009982,65.76973544083314,8.029193092053637,122.25792407856433,0.10520833333333333,58,3.4631212749999998,0.1065851355281278,6.471884155784546e-05,33.05166666666667,0.017527755766847064,1.385417042485127e-05,87.078,3.5677802622919472,12.200000000000003,-0.0060744460922434055
S090,14073.0,14102.984375,W,-0.11348437500000016,266.2609707279972,-1175.67,1514.23,2689.9,12.625,0.0,796.875,796.875,26.23677938819722,27.48031253533938,20.873766492997056,65.68912210181915,9.118643219194501,126.66885963013956,0.08958333333333333,57,3.556185275,0.23229575722438273,0.00013966507542997926,33.06266666666667,0.015902480589170046,-6.319446158704273e-06,83.134,0.8434872059887254,2.6299999999999955,0.0013694448159301254
S090,14103.0,14132.984375,W,-1.1535624999999996,262.23659077395376,-938.57,951.55,1890.12,-9.015,0.0,796.875,796.875,18.70080165765331,17.96743289254934,16.054863484099002,66.97247990928868,12.164945258128244,160.97825940169685,0.1,62,3.557189708333333,0.06353680092452928,-7.0039407020236e-07,33.05233333333334,0.046165162430368424,-3.07291750024918e-05,87.38166666666666,1.2405269937499246,4.820000000000007,0.002137326968675938
S090,14133.0,14162.984375,W,-0.32158333333333217,225.74180607428602,-835.89,762.27,1598.1599999999999,11.975000000000001,0.0,796.875,796.875,21.356487678741143,17.094029901984218,13.878696798561055,68.28634098359927,19.215488806470937,174.43910112127958,0.10104166666666667,54,3.6137332666666664,0.05229749370663528,2.6376360887684692e-05,33.054,0.012000000000000456,4.583334576642854e-06,88.42033333333333,1.0197466460951092,3.230000000000004,-0.001046979450678022
S090,14163.0,14192.984375,W,0.313343749999999,254.5285990602009,-751.6,709.57,1461.17,22.465000000000003,0.0,796.875,796.875,21.237070821639534,16.398320967573344,14.973418251129695,67.42325796790351,15.071396528751725,169.33989488599548,0.10729166666666666,58,3.69963715,0.11660569323391046,9.120451215400179e-05,33.13533333333333,0.04462684792314544,7.58333539044468e-05,83.96566666666668,1.4740187319780644,5.329999999999998,-0.0023840631467185185
S090,14193.0,14222.984375,W,-0.6007864583333334,217.22892047728183,-694.94,887.33,1582.27,13.184999999999999,0.0,796.875,796.875,14.540005725344662,18.475878107186062,25.187469930365285,66.86059966037952,13.633476130018716,151.12246689357607,0.11354166666666667,49,3.772864708333333,0.164295726194891,2.0737331797236274e-05,33.214,0.023466287875730334,3.2430564352908094e-05,84.52666666666666,1.7467938884965464,5.310000000000002,0.003089792504826524
S090,14223.0,14252.984375,W,0.21094270833333367,199.38158734780416,-844.1,628.85,1472.95,16.560000000000002,0.0,796.875,796.875,15.00787116254658,20.087858670655322,21.317854262877017,66.53020433445711,11.504466286999953,172.71074083565273,0.084375,50,3.7547789750000002,0.1965412456293192,0.00010230845114704078,33.246,0.014966629547097536,-1.1805558758019455e-05,90.73466666666667,1.3494955436096197,5.409999999999997,0.0023876395365775667
S090,14253.0,14282.984375,W,-1.078583333333332,156.03272168700883,-631.51,574.63,1206.1399999999999,6.9,0.0,796.875,796.875,16.97968221993364,30.488172495401802,16.99508915997664,65.65281747532943,7.658958211428765,108.07867504739313,0.10104166666666667,38,3.8606913083333336,0.06714261231696751,-9.435826105638587e-05,33.254666666666665,0.033339999333467575,5.118056943917515e-05,97.68266666666666,1.7215205165460246,6.070000000000007,0.0016121532151023277
S090,14283.0,14312.984375,W,0.5241666666666664,169.74013977233128,-733.34,625.37,1358.71,5.88,0.0,796.875,796.875,15.869778470621357,37.139143966170394,19.817036125261783,65.50011768360736,7.1383792581780465,110.6752004741803,0.09583333333333334,41,3.8247779,0.029300235367769063,1.4640675846537501e-05,33.351000000000006,0.025605988882810373,3.711806562447361e-05,92.887,1.968556408471275,7.6499999999999915,-0.003417188426971683
S090,14313.0,14342.984375,W,0.15875520833333354,47.71791853524115,-346.24,150.73,496.97,9.115,0.0,796.875,796.875,4.285299559856736,9.0747804127665,7.599140747753437,64.1326809179363,1.2235828312122126,70.04284403134984,0.10416666666666667,57,3.8804783,0.022677464270577832,3.301235791350858e-05,33.38166666666666,0.01416176385749889,9.75694709118594e-06,80.765,3.6411186467897467,11.329999999999998,-0.006397119790885359
S090,14343.0,14372.984375,W,-0.26275520833333255,149.62545868790204,-659.69,608.74,1268.43,13.72,0.0,796.875,796.875,15.626546590124553,16.48601035200418,13.103648928232738,65.46181029552169,7.797725170402751,129.04650324592293,0.10520833333333333,43,3.835418575,0.0408520901755472,-6.56665392975638e-05,33.398333333333326,0.02066935466390267,-1.3229170255308432e-05,74.46433333333334,1.0722707473187711,3.3700000000000045,-0.0013976045457911638
S090,14373.0,14402.984375,W,0.39477083333333385,167.90942284163205,-671.38,799.9,1471.28,13.379999999999999,0.0,796.875,796.875,15.84619420112357,27.879143859279267,12.737619559396903,65.94195344756587,10.224430734881478,118.76447280226525,0.10416666666666667,39,3.7594953583333335,0.19319720093934228,3.4681860753542934e-05,33.335,0.016881943016133927,-8.680557910308078e-07,79.825,2.5322516330991536,7.829999999999998,0.00446371648863837
S090,14403.0,14432.984375,W,-0.03469791666666688,79.47694393470607,-498.33,430.96,929.29,4.24,0.0,796.875,796.875,1.7953181661500373,2.1077074169712353,1.8808692859508693,64.80557173329663,1.3123442081042533,76.32823854904552,0.051041666666666666,22,3.74207145,0.025609296915004003,-4.4723996073132625e-05,33.29333333333334,0.015563490039904544,-1.7569449210462377e-05,83.92299999999999,0.8385231064198538,3.0,-0.0006550348999118133
S090,14433.0,14462.984375,W,-0.3332187500000001,22.48269923403286,-109.95,143.74,253.69,1.9649999999999999,0.0,796.875,796.875,1.832905963445297,1.5518522618820174,1.5707666735414056,64.73301148221046,1.457643455722223,74.1215218408257,0.08229166666666667,41,3.7044719333333336,0.010024401210490764,8.75200280816047e-06,33.27733333333333,0.01093414631123635,4.236112260229288e-06,74.58800000000001,4.271304562620964,13.14,-0.007655627076721754
S090,14463.0,14492.984375,W,0.04844270833333339,22.252793830257044,-174.63,45.93,220.56,3.705,0.0,796.875,796.875,0.6870705729560991,0.5949649484890311,0.539273559728476,64.71259670206327,0.41787527179390016,66.79071791798619,0.1,60,3.6920809916666664,0.004235699590968503,-6.652308445179212e-06,33.28600000000001,0.014047538337136416,4.4444456500769745e-06,63.077,2.74320755078187,9.369999999999997,-0.004921216612743221
S090,14493.0,14522.984375,W,-0.06804687500000013,16.92079047810866,-45.54,32.61,78.15,3.61,0.0,796.875,796.875,0.6354943600042585,0.7637512502262908,0.48626981536317193,64.69953762385975,0.3926910474606922,66.61831579978588,0.084375,60,3.6684196750000004,0.006690023541516264,-1.1161825293463908e-05,33.31766666666666,0.016265163865006795,1.7187504662407807e-05,57.154,0.571545273797273,2.3200000000000003,-0.0005306945884045653
S090,14523.0,14552.984375,W,-0.12124999999999996,17.6926463773324,-44.85,33.68,78.53,3.1550000000000002,0.0,796.875,796.875,0.5286907308520634,0.5627160079076795,0.3470110468942835,64.68364747765982,0.3516612752348649,65.76473218982953,0.08541666666666667,57,3.6517917083333336,0.004300090596711922,-2.962172027498898e-06,33.345000000000006,0.018752777572045923,2.4548617770349256e-05,57.41733333333333,0.9530195287727435,3.469999999999999,0.0014268059426014378
S090,14553.0,14582.984375,W,0.014302083333333264,26.750356713595032,-167.06,134.34,301.4,2.4850000000000003,0.0,796.875,796.875,2.3865069833539607,1.3859785044980153,0.9035754355383581,64.72308747674474,0.7173951567871639,70.79548008171143,0.059375,39,3.621609649999999,0.016170543151385938,-2.574422529954033e-05,33.38899999999999,0.015989579940281173,1.5451393080346733e-05,64.30900000000001,2.1958587538060517,7.199999999999996,0.003872466328251499
S090,14583.0,14612.984375,W,0.28043750000000006,20.583278514170843,-47.66,45.57,93.22999999999999,2.61,0.0,796.875,796.875,0.5996228198139782,0.5579668806753278,0.4170831252080733,64.81644113669283,0.3788689839051084,66.17401302626281,0.09375,65,3.6442676083333327,0.04187629051470054,6.446073081074511e-05,33.42666666666666,0.01867856763483119,2.2708339493367124e-05,72.65666666666667,2.7151038449549016,8.900000000000006,0.00485291798310492
S090,14613.0,14642.984375,W,-0.3125885416666666,20.176629003251975,-60.48,43.36,103.84,2.7,0.0,796.875,796.875,0.5283581421620083,0.4780319444666387,0.4215083283083898,64.85950376059503,0.3791177425169163,66.37770710110436,0.09583333333333334,68,3.6893701333333335,0.009915578502146104,1.2194837509450214e-05,33.466,0.011999999999999034,9.444447006414187e-06,77.20766666666667,0.3282446580761916,1.1300000000000097,4.447917873241653e-05
S090,14643.0,14672.984375,W,0.40119270833333337,21.662059956204462,-52.28,46.35,98.63,3.855,0.0,796.875,796.875,0.7040033094540268,0.5085200732818278,0.46826247795855785,64.8421353576314,0.3840341945790137,66.17401302626281,0.146875,94,3.6758798416666667,0.009680417294720876,-1.6420682188770177e-05,33.50000000000001,0.01949358868961794,2.4236117685579255e-05,72.068,3.115584910307106,10.319999999999993,-0.005541945947793498
S090,14673.0,14702.984375,W,-1.0288385416666668,37.2416680846056,-176.95,153.36,330.31,0.975,0.0,796.875,796.875,1.9060166068414923,0.8830575188498324,0.7451747266674367,64.84207512360443,0.679370050002246,67.54998149518622,0.052083333333333336,30,3.653691433333334,0.006395391659538024,-6.424690110864243e-06,33.53833333333333,0.014161763857497551,1.5451393080345896e-05,62.87533333333333,1.0285839240863572,3.700000000000003,-0.0015345837496158182
S090,14703.0,14732.984375,W,0.8963020833333335,24.861001586160583,-89.74,67.22,156.95999999999998,0.9299999999999999,0.0,796.875,796.875,0.6569308637308969,0.5778377664838117,0.3325495342175859,64.77559385231528,0.3499158182943873,66.37017402418047,0.065625,51,3.6511300249999996,0.006270243399664907,7.666571741148968e-06,33.55733333333333,0.013148721948877925,6.250001695431075e-07,64.96266666666666,2.01558747984028,6.140000000000001,0.0035820843050358916
S090,14733.0,14762.984375,W,-0.2070312499999999,94.51240162968838,-669.0,416.16,1085.16,8.28,0.0,796.875,796.875,0.6601561986357639,0.56822319925067,0.42161643310794544,64.83551450732575,0.40158050709984355,66.37017402418047,0.165625,93,3.6705542,0.004433008543115339,1.2417060660010278e-06,33.57266666666667,0.013399834161495955,2.638889604733303e-06,69.33233333333334,0.5367909793910053,2.039999999999992,-0.0002598959038346088
S090,14763.0,14792.984375,W,0.019505208333333357,27.845018383287123,-98.56,73.65,172.21,3.475,0.0,796.875,796.875,0.6980130530457307,0.5153366196935962,0.48706243717652203,64.78366867289618,0.4439669061349937,66.37017402418047,0.190625,116,3.674396333333333,0.0021356707195215835,-1.8842973861484145e-07,33.58133333333334,0.013349989596334927,1.7361115820618885e-06,76.57,3.0348322303986883,10.230000000000004,0.005445765366147292
S090,14793.0,14822.984375,W,0.2817083333333335,30.941902962755815,-192.37,94.75,287.12,1.5750000000000002,0.0,796.875,796.875,0.6281163625719007,0.5357003139712435,0.5010395010348209,64.70801311157715,0.4519835748776952,66.37017402418047,0.190625,112,3.665367291666667,0.006646579314950692,-9.892757674901724e-06,33.59200000000001,0.011944315244778965,8.5416689837426e-06,81.53699999999999,0.8128597665034234,2.7900000000000063,0.0005457293147052162
S090,14823.0,14852.984375,W,-0.4192135416666666,17.184456965653585,-40.17,38.87,79.03999999999999,1.205,0.0,796.875,796.875,0.6358741522502703,0.47714701176192365,0.4779411411199082,64.6551216386646,0.449114932749477,65.58200972827838,0.18020833333333333,119,3.637052858333333,0.009988735998026221,-5.882434104392976e-06,33.60266666666668,0.013148721948876207,1.2847225707253593e-05,73.33533333333334,3.5630770721698144,11.950000000000003,-0.006412640628428989
S090,14853.0,14882.984375,W,0.434671875,21.88323247937792,-99.45,54.51,153.96,2.725,0.0,796.875,796.875,0.6686299217221902,0.5476026904583489,0.49789487400008003,64.71063030363972,0.4471584793592649,65.76473218982953,0.19166666666666668,114,3.6125380000000002,0.004219376910951018,-6.300750407104569e-06,33.61266666666667,0.01436043948569177,1.0277780565804463e-05,67.38966666666667,0.34545123469971356,1.0400000000000063,-0.0005151737508609379
S090,14883.0,14912.984375,W,-0.15780729166666674,20.682661240113184,-62.4,47.18,109.58,0.76,0.0,796.875,796.875,0.715587850806749,0.6584783595532961,0.4728707760406994,64.65263014378593,0.4305022154289523,65.76473218982953,0.14583333333333334,103,3.606956166666666,0.004077873288315351,-4.026876092360155e-06,33.628,0.013999999999999685,3.819445480535296e-06,66.364,0.5114267624336203,1.4200000000000017,-0.0008095141084836469
S090,14913.0,14942.984375,W,-0.0548229166666666,32.76631862475004,-237.32,119.93,357.25,1.69,0.0,796.875,796.875,0.8232620583184108,0.4966511113335889,0.4902156820528649,64.76132257671638,0.4321147006108491,66.61831579978588,0.171875,109,3.6041279249999993,0.002230503994476285,-1.1734232783808898e-06,33.63433333333333,0.010225241100117174,3.645834322327896e-06,66.08733333333333,0.40262416994291655,1.25,0.00037902788059567
S090,14943.0,14972.984375,W,-0.44256249999999964,42.52724155977664,-211.73,136.84,348.57,3.185,0.0,796.875,796.875,0.6355225321645873,0.5344623060583621,0.49073004006502613,64.70161375401177,0.46785249813048296,65.76473218982953,0.24270833333333333,160,3.604939049999999,0.002468966976456562,2.0506090632077033e-06,33.642999999999994,0.01004987562111889,5.729168220801871e-06,63.51333333333333,0.8335399743796876,2.9099999999999966,-0.0009104863580963441
S090,14973.0,15002.984375,W,0.5669166666666668,21.133191443727146,-62.04,56.68,118.72,1.17,0.0,796.875,796.875,0.6147457412531533,0.49929529331904937,0.43833130346488175,64.80461781172703,0.36379061192261886,65.68865959965997,0.153125,83,3.6092934999999993,0.002930601579312179,3.644667655346144e-06,33.63466666666667,0.0123107902084119,2.8472229945811864e-06,63.83466666666666,0.4155136045372702,1.2100000000000009,-0.0004287501163059113
S090,15003.0,15032.984375,W,-0.43346875,23.333074766775596,-64.44,76.52,140.95999999999998,1.0550000000000002,0.0,796.875,796.875,0.7057789419716032,0.49536808529673726,0.4841229182759271,64.78058732572252,0.41393123555779965,65.76473218982953,0.17916666666666667,110,3.6119509499999998,0.0020809544358699294,-1.6656159032161247e-06,33.640333333333324,0.011396880664850239,5.451390367672084e-06,67.65899999999999,1.3106470412230244,4.310000000000002,0.001878576898485487
S090,15033.0,15062.984375,W,0.09001562500000002,28.178704489711834,-83.33,58.19,141.51999999999998,1.6549999999999998,0.0,796.875,796.875,0.6995278355493321,0.4744228492922275,0.4720255922322668,64.76700261230172,0.3925845362486503,66.1362230551458,0.14270833333333333,95,3.6075112166666656,0.0030739705083798674,-3.8806724936720665e-06,33.64366666666666,0.011685698761969744,2.3958339832444187e-06,65.97033333333333,0.681383315192133,2.530000000000001,-0.0007535071488463394
S090,15063.0,15092.984375,W,0.08161458333333335,23.035128418293816,-59.8,55.9,115.69999999999999,2.74,0.0,796.875,796.875,0.5352788408857574,0.46341407420002545,0.3538463625132932,64.81816018268464,0.342883165475932,66.37017402418047,0.06875,46,3.6009474666666668,0.0026173815061791925,-3.133408402074741e-06,33.64466666666666,0.009910712498210367,-5.3472236727484135e-06,64.84733333333332,0.781916164872481,2.3500000000000014,-0.0010540280637011885
S090,15093.0,15122.984375,W,0.17517187500000003,22.36320451125298,-60.88,57.51,118.39,-1.085,0.0,796.875,796.875,0.6042519695527134,0.5755281390939011,0.40029150619336845,64.78143369947036,0.3725110841199915,66.1362230551458,0.075,51,3.5998268500000004,0.002015914869441042,-3.899675537021442e-07,33.63066666666666,0.010934146311237432,-2.0138894351907635e-06,67.06566666666667,1.4693075088474703,4.1000000000000085,0.002525521518424892
S090,15123.0,15152.984375,W,0.12078125000000008,25.520749532122192,-79.16,85.84,165.0,1.7149999999999999,0.0,796.875,796.875,0.66759050572438,0.5529238884230712,0.4100185780851887,64.75151365145874,0.38026943731066054,65.92419889539804,0.078125,60,3.599773516666667,0.0026566459743548204,-2.0466220829595976e-06,33.62533333333333,0.013349989596334004,4.9305568930539535e-06,69.10966666666667,1.004982531633705,3.0999999999999943,0.001612257381797251
S090,15153.0,15182.984375,W,-0.17046874999999997,19.697764855462836,-44.6,53.81,98.41,0.91,0.0,796.875,796.875,0.5494542352163848,0.5097987330936483,0.487418752132656,64.6922868520834,0.438630650728219,65.58200972827838,0.12395833333333334,90,3.592142616666666,0.0027993830486475703,-1.9602201497992243e-06,33.62866666666666,0.010241527663824933,4.1666677969505205e-07,70.74566666666666,0.6702272417289198,2.3000000000000114,-0.0011165628028870459
S090,15183.0,15212.984375,W,-0.23471875000000084,62.13321450658173,-342.28,338.34,680.6199999999999,1.4049999999999998,0.0,796.875,796.875,0.5910345434889759,0.5356071321407138,0.4944999139843763,64.71901491898544,0.4319813840213942,65.58200972827838,0.1375,99,3.583689841666667,0.0026478121975065084,-1.442785330616727e-06,33.62733333333333,0.009977753031397661,3.888889943817768e-06,69.67333333333333,0.3165157535135068,0.9200000000000017,8.750002373591952e-06
S090,15213.0,15242.984375,W,0.16405208333333324,52.9095668593808,-294.76,251.1,545.86,1.77,0.0,796.875,796.875,0.5094069519630973,0.5177030935348519,0.4976986970603355,64.69108702087729,0.4606716733383301,65.76473218982953,0.17395833333333333,119,3.5784176166666675,0.0020901107553720297,-1.5978693570610242e-07,33.620000000000005,0.012382783747338595,-2.013889435190492e-06,69.58133333333333,0.581977853721447,1.9199999999999875,-0.00043909734133499917
S090,15243.0,15272.984375,W,0.041807291666666656,16.82346517313284,-32.2,33.3,65.5,0.56,0.0,796.875,796.875,0.5109733358992424,0.49476315707338425,0.499995659703384,64.65670557117112,0.473250831543994,65.76473218982953,0.18958333333333333,122,3.5734762,0.0022502957087162994,-1.9009710017825564e-06,33.61733333333334,0.012092238098145419,2.7083340680154053e-06,70.20033333333335,0.9547267788337256,3.239999999999995,-0.0014048267699725391
S090,15273.0,15302.984375,W,0.22072395833333344,17.781611635070306,-37.18,39.23,76.41,0.995,0.0,796.875,796.875,0.5638862162977168,0.49975579974123363,0.500077033996319,64.65972308446611,0.44534889711329434,65.92419889539804,0.16875,118,3.571683174999999,0.0027150121198701725,2.7203386285641222e-06,33.62066666666667,0.012364824660661723,-4.861112429772172e-06,66.48166666666667,0.9598648631737466,3.75,-0.0014002434353958967
S090,15303.0,15332.984375,W,-0.13807812499999994,18.238284033413883,-53.74,39.81,93.55000000000001,0.56,0.0,796.875,796.875,0.5923915380683624,0.5260891067717416,0.4969426928032603,64.63156060371405,0.4608856638092605,65.58200972827838,0.23229166666666667,141,3.5743833583333338,0.001945037745117232,-5.8092246661309645e-08,33.626,0.009521904571391359,7.2222241813769225e-06,61.72200000000001,0.6750575284127024,2.6899999999999977,-0.0009213196943684066
S090,15333.0,15362.984375,W,0.0045729166666667416,16.367556992444936,-31.52,32.61,64.13,1.08,0.0,796.875,796.875,0.6936272101044062,0.6112861767867448,0.48358021711903065,64.61947960940134,0.4494682155966663,65.58200972827838,0.275,168,3.572739808333333,0.0020792695283674734,7.422593159341115e-08,33.638999999999996,0.010440306508908473,6.354168390343894e-06,61.59733333333333,0.7015550980183641,2.6500000000000057,0.0007510418703998125
S090,15363.0,15392.984375,W,-0.004374999999999988,16.5366287886228,-33.42,33.85,67.27000000000001,0.04,0.0,796.875,796.875,0.5012311232244949,0.49190936806376123,0.48789046862487484,64.62727494480366,0.44455019448927074,65.58200972827838,0.284375,182,3.5690896999999997,0.0021727121630195747,-1.2031682951302335e-06,33.632666666666665,0.011234866364234342,2.500000678168213e-06,64.24266666666666,0.41487293904948186,1.5500000000000043,0.0005350001451280759
S090,15393.0,15422.984375,W,-0.020812500000000032,16.20946035711894,-44.57,41.5,86.07,-1.0750000000000002,0.0,796.875,796.875,0.5209906012561285,0.3623068810299725,0.47729594061814057,64.76139162362915,0.4433170095272205,65.58200972827838,0.078125,46,3.56628275,0.002266638812022411,-2.1728222039989885e-06,33.64199999999999,0.010770329614266863,-1.3194448023664912e-06,67.00299999999999,0.8732359360447784,2.6200000000000045,0.0014539934499765226
S090,15423.0,15452.984375,W,0.030994791666666664,59.59405592824791,-381.85,226.41,608.26,4.345000000000001,0.0,796.875,796.875,8.123649460406053,9.61490812921961,6.060244067669406,64.37703640278376,2.8681615472845823,92.73618495495704,0.05,23,3.553368941666667,0.014112924205195642,-2.235584482309158e-05,33.65066666666666,0.010306416555825494,1.1597225368169203e-05,70.87533333333334,2.2834998479429673,6.3999999999999915,0.004073195549369451
S090,15453.0,15482.984375,W,-0.03427604166666677,28.590736961413178,-59.44,55.28,114.72,2.715,0.0,796.875,796.875,0.13303596396588907,0.502752838546603,0.15469714476105315,64.21970184650606,0.15376848138838078,65.1766829472013,0.025,22,3.5221621166666663,0.008829704859340157,-1.5432905228110113e-05,33.67366666666667,0.01401982722987677,7.743057655995201e-06,73.61166666666666,0.4929981969766446,1.480000000000004,-0.0008490627303230064
S090,15483.0,15512.984375,W,0.09363020833333341,28.740859594086675,-64.83,50.52,115.35,4.4,0.0,796.875,796.875,0.24684642942976148,0.6627087917843956,0.16715748043054757,64.22231774488894,0.16503577750524218,65.21502894272147,0.022916666666666665,19,3.4950536999999997,0.008676702306176011,-1.5098317029708409e-05,33.684333333333335,0.01453348623772808,9.618058164621094e-06,69.452,2.4231238790729077,7.240000000000009,-0.004309167835603255
S090,15513.0,15542.984375,W,-0.10628645833333321,32.00300656141584,-69.54,65.74,135.28,2.035,0.0,796.875,796.875,0.23090251670829018,0.508943452163401,0.18113022862631797,64.22404996784091,0.1841350815975952,65.21502894272147,0.029166666666666667,25,3.470912375,0.007001806349153208,-1.2027873271450063e-05,33.69233333333333,0.015849991237292416,-7.8819465825595e-06,62.56833333333332,1.0341343669412062,3.4499999999999957,-0.0016948268486400963
S090,15543.0,15572.984375,W,-0.06690624999999996,31.3918990597024,-71.36,58.02,129.38,2.415,0.0,796.875,796.875,0.21358993356949718,0.5010828118934034,0.1922883937966327,64.22342853083242,0.1941290251200619,65.1766829472013,0.030208333333333334,26,3.456653691666667,0.0025822973260123546,-2.036061967247698e-06,33.693333333333335,0.015986105077709836,-3.4027787008407624e-06,61.18033333333333,0.3497950193406925,1.1499999999999986,-0.0005028820808599393
S090,15573.0,15602.984375,W,-0.31257812500000004,31.364193782632473,-84.09,65.52,149.61,4.195,0.0,796.875,796.875,0.9599985532396508,0.5048205126577168,0.4928294424798503,64.17121608568144,0.38706298123973654,65.28399497579785,0.246875,131,3.4498018666666668,0.0039020910418503273,-6.002763781131605e-06,33.68966666666666,0.018162843634434427,1.0763891808787182e-06,64.959,1.7027788073225096,5.780000000000008,0.0030436466589753314
S090,15603.0,15632.984375,W,0.25818750000000024,32.119581588220356,-83.99,57.18,141.17,3.51,0.0,796.875,796.875,0.8585349429486774,0.5187866034609564,0.46131134792266076,64.15322834605709,0.38832045871768395,65.87108622149782,0.22916666666666666,124,3.4442947833333335,0.002419747156844235,-7.837823306701254e-07,33.684,0.017435595774164005,1.0208336102522363e-05,67.68100000000001,0.28103795710425505,0.8499999999999943,0.000478159851931383
S090,15633.0,15662.984375,W,-0.08868749999999999,24.716256761033694,-53.62,45.62,99.24,2.0,0.0,796.875,796.875,0.6373357291076833,0.5276676602959691,0.42227475915832596,64.29689446041341,0.3763700481273068,65.1766829472013,0.08020833333333334,55,3.439107925,0.00466869438416231,-7.6270270255607876e-06,33.68266666666667,0.015477582354993032,-6.944446328246691e-06,66.02066666666666,1.2463785763384876,4.019999999999996,-0.002213820044981565
S090,15663.0,15692.984375,W,0.38771354166666677,33.40482862631327,-78.8,66.62,145.42000000000002,4.17,0.0,796.875,796.875,0.5165648001057886,0.4911323014219285,0.22263416678987577,64.19818636737651,0.24185148251464333,65.1766829472013,0.11458333333333333,64,3.437026791666667,0.0021708522861456072,1.584446393350194e-06,33.666999999999994,0.011000000000001172,3.7152787856123903e-06,64.298,0.39246570975479217,1.1799999999999926,0.0003417362038129854
S090,15693.0,15722.984375,W,-0.0056822916666668275,33.6551164735316,-85.24,67.21,152.45,2.965,0.0,796.875,796.875,0.4797720360725729,0.5064675030021395,0.30201148570873926,64.10370919877181,0.3127303832887795,65.1766829472013,0.096875,72,3.439022541666667,0.0023714617816016793,8.210234432030114e-07,33.66333333333332,0.0074535599250004645,1.041666949237074e-06,65.07266666666666,0.5909198103145837,1.8700000000000045,-0.0008393752276951048
S090,15723.0,15752.984375,W,-0.2843645833333335,26.14588949155448,-64.18,46.49,110.67000000000002,2.12,0.0,796.875,796.875,0.27156152106331677,0.49440884313153893,0.2060684175421681,64.2229909579493,0.20950118972388998,65.49045732013177,0.04479166666666667,35,3.439545458333334,0.0023333041625409265,-1.6153888930635543e-07,33.664666666666655,0.0105619863451709,-4.375001186795316e-06,64.48233333333334,0.7835376329329831,2.3800000000000026,0.0013243406370281674
S090,15753.0,15782.984375,W,0.17057291666666677,27.00458003949083,-64.05,50.88,114.93,2.115,0.0,796.875,796.875,0.43481193052922956,0.4849112175325385,0.2358840309170306,64.2610680219081,0.2552188936997526,65.49045732013177,0.240625,111,3.435959508333333,0.0024666121063644094,-1.5439949934881708e-06,33.65966666666665,0.00657436097443883,-1.0069447175950853e-06,65.291,1.0513716437746141,3.190000000000005,0.00169920184982689
S090,15783.0,15812.984375,W,-0.23269270833333336,27.327229660659075,-58.76,49.08,107.84,1.875,0.0,796.875,796.875,0.3529083037183077,0.5315062698882823,0.2163459164291195,64.2214534745034,0.2229468296741156,65.21502894272147,0.059375,48,3.4322239999999993,0.0022207285891496817,-1.3560112185360281e-06,33.655333333333324,0.008055363982396228,2.5000006781688297e-06,66.894,1.117084300012014,3.1299999999999955,-0.0015850004299588826
S090,15813.0,15842.984375,W,0.26384375000000004,24.4179370037121,-61.17,66.16,127.33,1.9249999999999998,0.0,796.875,796.875,0.4541284387581215,0.6317826410685525,0.18703646406219535,64.27817365897107,0.21344257734724997,65.5286197016235,0.246875,139,3.434636091666666,0.00237885874947005,4.5441787500485496e-07,33.65333333333332,0.00906764700582252,1.180555875802313e-06,64.31966666666668,0.4391391832007505,1.3699999999999974,-0.000770382153423978
S090,15843.0,15872.984375,W,-0.14442708333333337,28.930487942453254,-192.89,95.1,287.99,3.08,0.0,796.875,796.875,0.4182664600433822,0.41352854723102245,0.21969043877440114,64.26266925246657,0.2435991545330059,65.49045732013177,0.21666666666666667,113,3.4373149333333335,0.0026748763202975655,3.3029622675135573e-06,33.655333333333324,0.008055363982396228,-6.944446328247159e-07,65.36966666666667,1.0610387468053288,3.5500000000000043,0.0019092713512563347
S090,15873.0,15902.984375,W,-0.033770833333333465,28.71127308091108,-70.67,101.08,171.75,0.08499999999999999,0.0,796.875,796.875,0.5079564432743116,0.40861889462146345,0.2835477130141514,64.32460022088067,0.3161852155713015,65.49045732013177,0.014583333333333334,12,3.4445616416666667,0.003713692086490759,5.149331474970626e-06,33.645333333333326,0.011469767022721936,-9.166669153283561e-06,68.284,0.6205191374969826,2.0600000000000023,0.001083055849353257
