participant_id,window_start_time,window_end_time,sleep_stage,BVP_mean,BVP_std,BVP_min,BVP_max,BVP_range,BVP_median,SDNN,median_nni,IBI_mean,x_std,y_std,z_std,mag_mean,mag_std,mag_max,movement_density,burst_count,EDA_mean,EDA_std,EDA_trend,TEMP_mean,TEMP_std,TEMP_slope,HR_mean,HR_std,HR_range,HR_trend
S091,7979.0,8008.984375,W,-0.0567656249999999,51.80862784995438,-505.19,422.72,927.9100000000001,3.76,13.338412271190025,828.125,818.6848958333334,0.6278053360163128,0.5567413560173161,2.1054822619902445,64.37703542922551,0.617806073330816,68.49087530467106,0.15,114,0.18304975833333337,0.0016878251982745639,-2.4507103002143834e-07,31.32933333333333,0.013148721948878183,1.2013892147866438e-05,74.78299999999999,0.5928864421905206,2.25,-0.0007658682633106204
S091,8009.0,8038.984375,W,0.0006354166666659703,106.55582837772373,-616.37,504.38,1120.75,-1.1549999999999998,43.547579836835816,890.625,867.041015625,1.018662125555705,0.6635596543872717,3.57653424731572,64.42099581619864,0.8931954149669276,69.8426803609369,0.05625,34,0.18649927500000002,0.005356024187713775,6.104051352010456e-06,31.33733333333333,0.013148721948878568,-6.5972240118343445e-06,73.80166666666666,1.0448224197866773,2.5999999999999943,-0.001819687993621959
S091,8039.0,8068.984375,W,-0.06817187500000035,181.30797869647574,-1030.07,1078.75,2108.8199999999997,6.285,77.09108906468603,812.5,772.3063151041666,26.59018973426415,18.288675456593275,18.145078408282185,64.85082142394035,4.408576184385498,102.9805806936434,0.06041666666666667,27,0.19790525833333333,0.012121006697393738,1.1391733341941548e-05,31.31333333333333,0.023711225658371513,-2.7847229776266437e-05,72.40799999999999,0.24725695136840967,0.8800000000000097,-0.00038131954788399276
S091,8069.0,8098.984375,W,0.06952083333333406,166.37852607044746,-599.27,677.09,1276.3600000000001,-0.13,23.81734830149185,671.875,677.8401692708334,13.517538600883997,6.0276049542397026,13.319704582494708,65.11978457597395,6.144536064294104,135.68345514468592,0.04895833333333333,25,0.19736060833333333,0.0076176645177462735,-1.7356083267166704e-06,31.152666666666672,0.06767241354906423,-9.152780260628369e-05,76.71233333333333,3.408427480362299,10.100000000000009,0.006093230819561314
S091,8099.0,8128.984375,W,0.7769322916666668,84.40863728399628,-445.32,467.4,912.72,3.64,32.67080806897748,796.875,798.291015625,9.118157394497713,9.773702492743816,10.364393371374767,64.47208702682428,3.2282920260712538,92.21713506718802,0.05416666666666667,22,0.20754905833333334,0.020079110394178253,1.5529753127645707e-05,31.092666666666663,0.019136933459209356,-2.5555562487945014e-05,83.29633333333335,0.44373778543439624,1.6800000000000068,0.000742048812404733
S091,8129.0,8158.984375,W,-0.6488906249999996,57.26112368796887,-283.58,384.3,667.88,1.2349999999999999,15.747856757923985,812.5,811.0432942708334,0.4925838902043883,0.5227869610053623,0.8672267571194335,64.35909678018956,0.4703668478172503,65.86349520030045,0.14791666666666667,100,0.20147223333333336,0.0013440247253016621,-7.679255555353438e-08,31.064,0.014742229591663674,-1.0069447175956593e-05,84.89166666666667,1.6705370061417042,5.5,-0.0018218407719837156
S091,8159.0,8188.984375,W,-0.004572916666666593,15.323577691097462,-31.53,32.72,64.25,2.77,15.26715048685492,812.5,812.0035807291666,0.28288682648229174,0.3487188232779145,1.1429110462858525,64.13474383747453,0.3014679112650298,65.39877674696982,0.20104166666666667,75,0.20367224166666673,0.0018732463799325894,2.202161404666179e-06,31.020666666666664,0.021123972690340397,-3.1944453109932466e-05,80.65,0.30225816779700054,1.1599999999999966,-0.0005179862516238739
S091,8189.0,8218.984375,W,0.0007916666666666868,16.19797324957963,-31.35,28.05,59.400000000000006,2.8449999999999998,10.618055979133588,812.5,815.0553385416666,0.0,0.07880950133074056,0.49749371855330987,64.33731316716882,0.1280016782916433,64.64518543557594,0.0020833333333333333,2,0.20774136666666668,0.0017493454201183013,1.7345950885945835e-06,30.981333333333335,0.016069294390926192,-1.1597225368171756e-05,74.97466666666668,1.8787295944038565,6.069999999999993,-0.002896875785827844
S091,8219.0,8248.984375,W,-0.0601197916666667,16.535075144604978,-33.31,26.38,59.69,2.895,12.37533445152504,828.125,820.9879557291666,0.0,0.03225804701500421,0.4041398186959008,64.39991116755901,0.1040029350878727,64.72248450113763,0.0020833333333333333,2,0.21051801666666667,0.001729625267619807,1.0715562802615801e-06,30.95933333333334,0.014360439485691705,-1.4583337289316444e-05,73.514,0.11019981851164865,0.4300000000000068,-0.00018743060639936362
S091,8249.0,8278.984375,W,0.10408333333333326,15.958890739612478,-31.57,31.21,62.78,3.205,28.913038905691632,812.5,818.0094401041666,0.05581428468591172,0.03225804701500421,0.32790998246046466,64.41806527791643,0.09869574508665542,64.72248450113763,0.0020833333333333333,2,0.2145120583333333,0.001779360195387812,1.3363725413336957e-06,30.937333333333335,0.010934146311237585,-2.8472229945808298e-06,72.99733333333333,0.11422006050699823,0.37000000000000455,-0.00013472225876797413
S091,8279.0,8308.984375,W,-0.02232291666666678,17.049204997957865,-34.12,26.06,60.17999999999999,3.395,13.483313007755937,828.125,827.587890625,0.03225804701500421,0.0,0.2559004221209232,64.43374330860782,0.07227198928928433,64.72248450113763,0.0020833333333333333,1,0.21733161666666664,0.0021829282595607407,2.6553535848940935e-06,30.931333333333335,0.014544949486180642,-1.1805558758018073e-05,73.03,0.0818127944354237,0.25,-0.0001268750344170513
S091,8309.0,8338.984375,W,0.029760416666666702,18.85489636465198,-38.71,36.88,75.59,3.585,29.29423002383249,828.125,839.111328125,0.17677362623014653,0.12801909579781015,0.3111620664496594,64.42691004503027,0.16561617144496157,64.91532946846992,0.046875,26,0.221389875,0.0018489387837464166,1.7418058110367356e-06,30.91466666666667,0.015216949614017447,-1.5763893165118252e-05,72.50766666666665,0.22896409228426082,0.7999999999999972,-0.00040100705322456917
S091,8339.0,8368.984375,W,0.003557291666666688,18.74871154467046,-36.16,29.51,65.67,3.225,17.123476871841607,828.125,832.4788411458334,0.22008274564480418,0.11557806855349138,0.4470376549358627,64.4808078622619,0.2222065782044658,64.72248450113763,0.24479166666666666,78,0.22568315833333336,0.0018483673831962868,1.7764546919636193e-06,30.907333333333334,0.013399834161494232,6.944446328245926e-06,71.86766666666668,0.0867057604135339,0.25,-0.00015218754128351508
S091,8369.0,8398.984375,N1,-0.036635416666666774,24.074922493220598,-67.06,101.51,168.57,2.4450000000000003,69.58036890396721,828.125,799.9104817708334,0.2576604138956718,0.3054766312211496,1.2669334799855645,64.26397593712662,0.3575682952194232,68.4178339323893,0.15520833333333334,66,0.22624921666666667,0.002565004100657324,-2.030925464118238e-06,30.902,0.013266499161421318,2.638889604733453e-06,71.83433333333332,0.08701277045481547,0.3500000000000085,2.64930627422592e-05
S091,8399.0,8428.984375,N1,0.022812500000000093,18.85495129231781,-36.93,30.84,67.77,3.21,20.177145681316077,828.125,839.6484375,0.045595976308831845,0.2795007329547138,0.4573426793870094,64.04383290969135,0.12062159371474271,64.90762667052309,0.3,62,0.22844925833333335,0.0024531835183961566,3.296252413262914e-06,30.89133333333333,0.014544949486180642,-1.1388891978323319e-05,71.60766666666667,0.049912145037278366,0.21999999999999886,-3.475695387287329e-05
S091,8429.0,8458.984375,N1,-0.254796875,18.705620614213977,-37.7,30.4,68.1,2.3049999999999997,31.759048319001664,843.75,845.7275390625,0.0,0.25828082463667335,0.48594726901577384,64.05961022427896,0.11939254634354632,64.389440128021,0.38229166666666664,82,0.23188801666666667,0.0016931489301659853,1.037915646135972e-06,30.896,0.013808210118138358,7.291668644658222e-06,71.153,0.12272326592785872,0.4899999999999949,-0.00014531253941854863
S091,8459.0,8488.984375,W,0.10658333333333325,18.50218208396122,-49.01,34.58,83.59,3.425,13.049447725382864,843.75,836.71875,0.0,0.2200827456448041,0.49738792532980625,64.09636327992853,0.12061351816047103,64.389440128021,0.009375,9,0.2345685333333333,0.00206416271537773,2.369169913511808e-06,30.91666666666667,0.01490711984999828,1.4583337289316444e-05,71.08266666666667,0.0920482965018315,0.28000000000000114,2.0555561131608436e-05
S091,8489.0,8518.984375,N1,0.08469791666666665,17.73668327084893,-36.26,30.2,66.46,3.145,11.156603283101358,828.125,833.7646484375,0.0,0.20912350152216008,0.458257569495584,64.13137868828974,0.11000396587591517,64.389440128021,0.0125,11,0.23808225000000002,0.0018553021687854475,2.024777458978255e-06,30.938666666666666,0.016069294390924922,1.6319448871377924e-05,71.63333333333334,0.15765644787180663,0.5600000000000023,0.0002827084100228981
S091,8519.0,8548.984375,N1,0.043671874999999936,17.236672221683357,-35.82,29.43,65.25,2.815,16.62508028054035,843.75,837.0849609375,0.0,0.19249988726547926,0.4155075021885887,64.14884705246807,0.10410814436350778,64.389440128021,0.022916666666666665,21,0.24078429166666668,0.0019446617632030256,2.048804592232152e-06,30.976666666666674,0.019550504398153964,2.430556214886168e-05,71.95433333333334,0.026668749918624855,0.10000000000000853,-5.868057147369605e-06
S091,8549.0,8578.984375,N1,0.01865104166666671,17.673954082770916,-35.53,29.81,65.34,3.255,10.523184711831426,843.75,838.2242838541666,0.0,0.1592592172022985,0.35501736068661327,64.1643032407664,0.08840037881272923,64.389440128021,0.016666666666666666,16,0.24419097500000006,0.0016153960167840159,9.472743455062782e-07,31.017333333333333,0.02096558025802229,3.3402786838864446e-05,71.78799999999998,0.055701585854140714,0.18999999999999773,-8.798613497887189e-05
S091,8579.0,8608.984375,N1,-0.03991145833333336,19.000201447464804,-107.4,81.83,189.23000000000002,2.7300000000000004,40.572550734835474,843.75,840.1611328125,0.5290846393116658,0.29720193985833193,2.672511295254688,64.11193553972019,0.2506917445048418,67.29784543356496,0.023958333333333335,16,0.24699985833333335,0.0018347472046389792,1.5673096699516223e-06,31.06066666666667,0.01842703328144661,2.4861117855120416e-05,71.55300000000001,0.1411889986271375,0.4200000000000017,-0.00024260423247728053
S091,8609.0,8638.984375,N1,-0.05089062500000005,16.402647153245432,-33.79,27.9,61.69,2.7699999999999996,10.78964999587669,843.75,844.1813151041666,0.0,0.35808948825289777,0.43829169439426985,64.08838343062165,0.09097206323957828,64.29618962271404,0.084375,75,0.24962710000000002,0.00161815879628669,1.24398644856403e-06,31.108,0.020231987873990928,2.8263896555960918e-05,71.05933333333334,0.10544930324831733,0.3499999999999943,-0.0001831250496758489
S091,8639.0,8668.984375,N1,0.053109375000000014,17.140306847351667,-37.36,27.15,64.50999999999999,3.1550000000000002,35.43670685703024,843.75,845.8984375,0.04559597630883185,0.3388075878684275,0.3476343040826092,64.10620862674594,0.09272991674179609,65.06919393998976,0.10104166666666667,89,0.25267066666666665,0.00152393280874046,1.0712837107432005e-06,31.160000000000004,0.021134489978864263,3.118056401382682e-05,71.01933333333334,0.0759356452676985,0.1799999999999926,0.00013048614650773823
S091,8669.0,8698.984375,N1,-0.2884895833333333,17.512622590871654,-40.22,31.26,71.48,2.875,14.848297939380386,843.75,847.3714192708334,0.0,0.3529390488770295,0.2263462809256845,64.12100014409491,0.07532499131990898,64.29618962271404,0.13125,97,0.25487062499999996,0.0018299001751575642,1.962960384917641e-06,31.212666666666667,0.019136933459209356,2.6944451753594194e-05,71.21833333333332,0.0677782331496534,0.20000000000000284,-7.812502119276388e-06
S091,8699.0,8728.984375,N2,0.26161979166666666,17.444383274997854,-46.58,50.1,96.68,3.7199999999999998,27.716483731563606,859.375,865.3483072916666,0.0,0.3630921887069453,0.1692379775805524,64.12819742340146,0.07446626918940456,64.29618962271404,0.15208333333333332,114,0.25806393333333333,0.0016041799189062957,1.1183549040676238e-06,31.26133333333333,0.01978776277287402,2.951389689504518e-05,70.54266666666668,0.32414948540586785,1.039999999999992,-0.0005836807138890827
S091,8729.0,8758.984375,W,-0.12798437499999998,16.762382887043213,-45.85,27.44,73.29,2.79,12.796229754938057,859.375,852.099609375,0.03225804701500421,0.35501736068661327,0.20142450595005124,64.13284881412925,0.0828833560377717,65.26101439603893,0.16666666666666666,109,0.26104361666666664,0.001797039227838082,1.6491527911113298e-06,31.31533333333333,0.017074997966487714,2.1250005764433122e-05,69.72800000000001,0.13489254983133786,0.4399999999999977,-0.0001816667159469158
S091,8759.0,8788.984375,N1,0.15513541666666666,15.987122818797916,-32.19,25.65,57.839999999999996,3.645,31.97794461478136,843.75,846.9401041666666,0.0,0.33071891388307384,0.12801909579781015,64.12880636768337,0.06728439275208371,64.29618962271404,0.14166666666666666,105,0.2630833583333334,0.0015795555693286732,1.188333872703415e-06,31.365333333333332,0.021092389359409044,3.090278616069579e-05,70.16499999999999,0.21544914326432946,0.730000000000004,0.0003825348259914361
S091,8789.0,8818.984375,N2,0.17659375,18.23358033505655,-74.25,42.13,116.38,3.0949999999999998,20.353967773027986,828.125,832.2672526041666,0.1579903082470567,0.36639283098502656,0.689012698187696,64.19844987133098,0.20070903867377832,66.2268827591938,0.13541666666666666,51,0.2667892833333333,0.0022378315291941794,2.8052260213829306e-06,31.416666666666668,0.023851391759997245,3.6111120906878815e-05,70.768,0.16244794037885912,0.6099999999999994,0.00028881952279175444
S091,8819.0,8848.984375,N1,-0.10589062500000009,16.562700487419125,-35.88,30.15,66.03,2.9800000000000004,21.996152018691532,843.75,834.3831380208334,0.03225804701500421,0.1496378730654628,0.47530029798422063,64.35102788689252,0.0989607685668903,64.66838485689897,0.3625,101,0.2705379,0.0017879790984982567,7.761395334579848e-07,31.468000000000004,0.01814754345175482,2.2986117346494074e-05,71.70666666666666,0.23536260441190548,0.8899999999999864,0.00041388900116346415
S091,8849.0,8878.984375,N1,-0.23190624999999987,18.47116977412487,-36.04,30.25,66.28999999999999,3.03,11.391880500533402,843.75,843.3268229166666,0.0,0.1015291077584267,0.49495720914932523,64.39349281800467,0.0966058879250412,64.66838485689897,0.0020833333333333333,2,0.27257762500000005,0.0018121798018891555,1.4354784709956865e-06,31.521333333333327,0.01978776277287458,2.881945226222142e-05,72.07499999999999,0.06839834305985189,0.28000000000000114,-4.684029048401605e-05
S091,8879.0,8908.984375,W,0.1917083333333334,17.997639810493595,-35.39,30.1,65.49000000000001,3.5549999999999997,20.53184917162088,843.75,844.6044921875,0.06441510347391795,0.07880950133074056,0.48572951292074296,64.39961568018467,0.11143119483297675,64.68384651518491,0.005208333333333333,5,0.275215425,0.0020256067060780486,2.2440980479866757e-06,31.576666666666664,0.02086996778999759,2.5972229267639763e-05,71.236,0.20572797573494947,0.75,-0.0003128473070874867
S091,8909.0,8938.984375,N2,-0.15693229166666667,18.899595396782498,-37.43,30.11,67.53999999999999,2.9,14.067236961989533,843.75,844.2220052083334,0.0,0.08507936450096985,0.39279397828250884,64.43920164762966,0.07718602718145248,64.66838485689897,0.004166666666666667,4,0.27761831666666664,0.0016758470792573945,1.476348924790828e-06,31.630000000000003,0.02065591117977291,2.791667423954919e-05,71.08633333333331,0.023872345693060175,0.060000000000002274,-2.7326396301650536e-05
S091,8939.0,8968.984375,N1,0.06723437500000008,24.798201066879866,-148.74,68.39,217.13,4.375,35.19667573509818,828.125,821.4192708333334,4.443860855782453,1.815514734173204,6.746639788628113,64.58811163734684,4.314076006318078,153.26121492406355,0.022916666666666665,11,0.2848166833333334,0.005680797797527111,7.2950197740396526e-06,31.686,0.022150996967781642,3.527778734749025e-05,71.34633333333335,0.26068478197922484,1.0200000000000102,0.0003922570508509795
S091,8969.0,8998.984375,N1,0.011999999999999922,19.982447640575298,-44.01,42.26,86.27,3.205,68.50471232789185,843.75,815.8935546875,0.11987768650679835,0.0,0.18214577495328665,64.52754058085124,0.1235175558399237,64.83054835492293,0.010416666666666666,8,0.291694375,0.0019392548013025478,2.153127103170327e-06,31.740666666666662,0.022350739485653137,3.1527786330236504e-05,73.18699999999998,0.2877979615401532,1.1000000000000085,0.00032038203135363336
S091,8999.0,9028.984375,N2,0.052265625000000086,34.71657810371763,-287.21,169.34,456.54999999999995,4.905,15.351888293475406,859.375,853.2552083333334,0.5941108187287583,0.13615185047912087,1.3934989030165519,64.47246620008328,0.45535928575193846,67.12674578735364,0.041666666666666664,26,0.30442443333333336,0.0058480080778747995,7.356323610113826e-06,31.8,0.02620432534271115,3.979167746084946e-05,72.73033333333333,0.20606606276197367,1.0,-0.00032614592180607317
S091,9029.0,9058.984375,N2,-0.2319947916666666,28.72606631198204,-57.65,46.42,104.07,5.095000000000001,36.22232890080876,843.75,846.1832682291666,0.3877897102489956,0.26170307270624255,0.3211240565921871,64.562429573589,0.36654361545288405,64.96922348312314,0.04895833333333333,33,0.31061880000000003,0.0019246753431856156,2.447920368902013e-06,31.865333333333336,0.029066972475455786,4.4791678817187585e-05,70.89833333333334,0.31834031405958496,1.25,-0.0003080209168893533
S091,9059.0,9088.984375,N2,0.33855729166666676,29.45893538667868,-67.81,46.85,114.66,5.9399999999999995,37.79003779228147,843.75,843.2373046875,0.4525966747557918,0.36010794822525094,0.4132988896939142,64.47929345868951,0.424370201830148,64.96922348312314,0.071875,55,0.31534970833333337,0.0018370387511601088,1.928099264349847e-06,31.913333333333338,0.021959558789333672,3.18750086466488e-05,71.06599999999999,0.03421500645428474,0.12000000000000455,4.1666677969541855e-07
S091,9089.0,9118.984375,N1,-0.1990520833333334,29.76439620582429,-57.47,78.93,136.4,3.795,66.34804911536611,843.75,811.8082682291666,0.48439068074976654,0.36110844016106236,0.45161265821005897,64.41388479174559,0.45687821396316397,64.96922348312314,0.09270833333333334,77,0.31930126666666664,0.001924552851674606,2.2520184060379694e-06,31.969000000000005,0.01955334583474982,2.947917466340429e-05,71.14033333333334,0.06575121460644294,0.20000000000000284,0.00010371530591235794
S091,9119.0,9148.984375,N1,-0.08918749999999995,28.640211672617642,-53.86,42.78,96.64,5.234999999999999,28.415186025876594,843.75,843.896484375,0.49777172751004395,0.4354116825871044,0.5419230162629703,64.37247699617083,0.4697485612443521,65.49045732013177,0.096875,76,0.32384013333333334,0.0015953115731905138,1.1235458776979994e-06,32.009,0.021189620100416615,2.6076395962563745e-05,71.241,0.09537120459901224,0.28000000000000114,-0.00011399308647816002
S091,9149.0,9178.984375,W,0.21894791666666671,37.922215591279134,-278.61,168.53,447.14,4.52,38.32368034644987,781.25,786.1735026041666,0.6040005159467076,0.7200953592329901,1.3571181777074128,64.41353272089223,0.5486064903107426,68.24954212300622,0.04479166666666667,29,0.3302160666666667,0.002940611367083757,9.208926109192188e-07,32.06866666666667,0.018571184369580218,2.4166673222298708e-05,72.174,0.6916097165309351,2.010000000000005,0.0012404864476145967
S091,9179.0,9208.984375,N1,-0.12973958333333332,31.31186255230888,-93.0,60.42,153.42000000000002,6.095000000000001,62.51321440978412,843.75,820.9309895833334,0.4982608642958915,0.41339864235384227,0.32953401179628716,64.28568892874463,0.47124723519484885,65.06150935845248,0.159375,130,0.3327043416666667,0.0015988713701433038,1.0751550225572503e-06,32.114000000000004,0.01818424226264794,2.2083339323822907e-05,73.30466666666666,0.027170245163086117,0.0799999999999983,3.548612073733738e-05
S091,9209.0,9238.984375,N2,0.038052083333333334,26.970533852888178,-53.02,48.76,101.78,4.9350000000000005,43.00937158151471,828.125,808.8541666666666,0.46547350257261927,0.3781752147557473,0.6343741447722752,64.15551562470664,0.43543839367700204,65.87108622149782,0.3,135,0.3356518166666666,0.0016511011526823152,1.1006886666364598e-06,32.15633333333332,0.01957606248003426,2.600695149928034e-05,72.503,0.5057150053801722,1.4399999999999977,-0.000879271071850878
S091,9239.0,9268.984375,N2,-0.09996874999999991,28.98519260435444,-135.52,103.71,239.23000000000002,5.34,20.941819019120167,843.75,845.8902994791666,0.17242336764004274,0.3281828652680629,0.33827072491324656,64.02964772766951,0.19643541061978587,65.3299318842443,0.13645833333333332,50,0.33738182499999997,0.0017575696319183614,4.371826272739292e-07,32.21133333333333,0.021715329966536214,3.062500830756472e-05,72.48400000000001,0.09816992071573101,0.3999999999999915,4.930556893058222e-06
S091,9269.0,9298.984375,W,-0.03919270833333324,26.719155823903385,-54.44,49.78,104.22,5.0,34.1211123443089,843.75,853.8167317708334,0.04559597630883185,0.4416654382844553,0.3984289895605266,64.05634221801435,0.12340981308227773,65.06150935845248,0.2,48,0.3400946416666667,0.001784638178996113,1.6483088238684988e-06,32.26533333333334,0.017650936393165742,2.0763894521457033e-05,72.458,0.3039012997668825,1.1700000000000017,-0.0004497223442172172
S091,9299.0,9328.984375,N1,0.15132291666666653,26.977710970121084,-52.52,48.55,101.07,5.54,12.916646567708446,843.75,847.314453125,0.03225804701500421,0.4377181995556299,0.3869395588747966,64.05027846285307,0.12228585764417577,65.06150935845248,0.184375,63,0.3427219083333333,0.0017047942250988989,1.2687227833991922e-06,32.29633333333333,0.02073376205344466,2.2534728335158418e-05,70.96033333333331,0.14485586706178866,0.6100000000000136,-6.885418534455837e-05
S091,9329.0,9358.984375,N1,0.009213541666666547,27.545015836887806,-70.22,54.05,124.27,5.035,23.230443386237013,843.75,838.7451171875,0.05581428468591173,0.44385146531682074,0.5545728070000266,64.10707286705079,0.16733226020733105,65.46754921333164,0.0875,53,0.34538099999999994,0.001657696494134756,1.0259616498376871e-06,32.349333333333334,0.01948218559493535,2.875000779893729e-05,70.57233333333333,0.08597221773469793,0.35999999999999943,-7.23264085086814e-05
S091,9359.0,9388.984375,N1,-0.013208333333333221,25.678901115879107,-51.03,53.09,104.12,4.965,14.641925635930713,859.375,853.515625,0.0,0.45780153807505813,0.243099202430247,64.26223096855979,0.09153838979455449,64.52131430775415,0.2760416666666667,180,0.34760236666666666,0.0015205969054581413,1.5215064891239564e-07,32.39733333333332,0.018961950204437188,1.9513894182370913e-05,71.02000000000001,0.12840041536796876,0.4300000000000068,-0.0001127778083707147
S091,9389.0,9418.984375,W,-0.12199999999999984,26.788007703619297,-60.13,54.39,114.52000000000001,4.225,28.233730045850738,859.375,858.7565104166666,0.11162856937182343,0.3041309910584947,0.374013459260938,64.2848470768394,0.14824970164491405,65.46754921333164,0.15,53,0.35036860833333333,0.001479741375465277,8.171831643834515e-07,32.44933333333333,0.020319667538837884,2.7569451923136954e-05,71.01700000000001,0.11787422675603547,0.519999999999996,3.378473138691617e-05
S091,9419.0,9448.984375,N1,-0.09871874999999995,26.430306403588386,-65.3,54.69,119.99,3.015,40.16252293060215,843.75,838.8916015625,0.09107288747664329,0.29860606423383673,0.43936976447015047,64.31068874173371,0.15104159640414208,65.18435395092905,0.23541666666666666,72,0.3526113,0.001652227045535822,1.0584881343555112e-06,32.48966666666667,0.014019827229875943,1.1493058673247655e-05,70.37866666666666,0.2752178934751312,0.7999999999999972,0.0003413195370332938
S091,9449.0,9478.984375,N1,0.22183333333333324,27.465137367164616,-92.0,67.83,159.82999999999998,4.49,35.449857679762,859.375,853.271484375,0.3220755173695897,0.4940520788309895,0.7249812916647498,64.34226053267166,0.31052570339225793,66.40030120413611,0.23229166666666667,74,0.35455495,0.0015769125205603576,8.009129776782213e-07,32.533333333333324,0.024944382578492727,3.708334339283381e-05,70.46366666666667,0.2844349173751751,0.8200000000000074,-0.0004338542843571755
S091,9479.0,9508.984375,N2,0.07364062499999971,37.70685668507475,-312.74,148.47,461.21000000000004,6.155,23.704755585756896,875.0,863.9404296875,0.21113737957916298,0.26113234990453915,0.5203122393225907,64.43115012468992,0.22318215954254841,65.76473218982953,0.24583333333333332,87,0.35774803333333327,0.001606578102330807,1.2328662198530251e-06,32.58333333333334,0.013984117975602853,1.805556045344111e-05,70.90466666666667,0.24855225249878904,0.8499999999999943,-0.00010020836051658973
S091,9509.0,9538.984375,N2,-0.08629687499999994,29.242826299535103,-97.41,70.67,168.07999999999998,4.744999999999999,32.93829726288379,859.375,852.0345052083334,0.1329706982655285,0.20497289793748075,0.7222619513645232,64.26309584261122,0.23569978793158514,66.1362230551458,0.13333333333333333,25,0.3603326416666667,0.0017463640695066715,1.5695687851477856e-06,32.622,0.01973153144926414,3.0138897064586525e-05,71.10600000000001,0.5627823735690376,1.5800000000000125,0.0009945836031314023
S091,9539.0,9568.984375,N1,-0.06306770833333335,24.01458174464872,-47.71,39.17,86.88,4.5,27.172215429436168,859.375,847.7294921875,0.07216126567549165,0.14359895446075582,0.5492419017761361,64.29751975868933,0.1670664966118978,66.07571414672717,0.010416666666666666,4,0.36300265000000004,0.0015466591557827798,8.785136931732081e-07,32.65999999999999,0.010954451150103739,8.888891300156068e-06,71.51133333333334,0.08110624034081461,0.25,-9.972224927361258e-05
S091,9569.0,9598.984375,N1,-0.039677083333333335,24.05680413538392,-74.26,54.76,129.02,4.535,48.618405415476516,843.75,841.064453125,0.10699797992641417,0.23105049577359105,0.35648749393679063,64.37343362714243,0.13919908484760274,65.3299318842443,0.051041666666666666,14,0.36507443333333334,0.0015563256285951856,2.9684860483089324e-07,32.71333333333334,0.028087165910587922,3.9513899607719894e-05,71.53466666666667,0.23002511940124223,0.75,-0.0002745834078188501
S091,9599.0,9628.984375,N1,0.15565625000000002,23.20396013898998,-46.67,39.99,86.66,4.28,28.867733700290458,859.375,847.8515625,0.09668440031302304,0.20549894819276648,0.3359274061791062,64.38615669747917,0.12874675785868547,65.3299318842443,0.07604166666666666,18,0.3662384666666666,0.0017875171091644181,1.431156204198181e-06,32.75666666666667,0.01659986613065281,1.7777782600310927e-05,71.12933333333334,0.12282598349788194,0.36999999999999034,0.00014951392944713784
S091,9629.0,9658.984375,N1,0.08040104166666658,22.249677034069855,-60.98,41.95,102.93,3.84,25.41626638086849,843.75,841.7724609375,0.05589199343873464,0.30207435331480154,0.43168255279648365,64.4348471928463,0.13089652865666068,65.46754921333164,0.18333333333333332,78,0.36966675833333335,0.0014983335187013197,1.0232873869594662e-06,32.79666666666667,0.014907119849998702,1.2777781243972775e-05,70.46133333333334,0.6434942803855273,1.5500000000000114,-0.001086250294664249
S091,9659.0,9688.984375,N1,-0.2296458333333333,24.300509988638087,-92.5,73.38,165.88,2.29,35.26720035271758,828.125,833.9029947916666,0.2684510611307435,0.5466715891546668,0.5837944605956983,64.46849127006202,0.3080314301140216,65.612498809297,0.04583333333333333,21,0.37240083333333335,0.001703829042350073,1.1760415516605795e-06,32.84166666666667,0.021921577396608882,3.232639765798494e-05,69.83633333333334,0.24409674766825876,0.7800000000000011,0.0003569098190402048
S091,9689.0,9718.984375,N1,0.13378645833333325,24.39590850869909,-51.39,40.46,91.85,5.195,33.25172208885311,875.0,869.0266927083334,0.22008274564480412,0.4587107820808469,0.36689002429959244,64.54179193972303,0.24111175037453242,64.96922348312314,0.013541666666666667,8,0.37460072499999997,0.0016039652529616598,8.107921036219927e-07,32.889333333333326,0.020154955277106704,2.8194452092677234e-05,70.61533333333334,0.35264461178674195,1.0500000000000114,0.00047569457348485447
S091,9719.0,9748.984375,N1,-0.10291666666666685,29.52836061055917,-99.73,64.55,164.28,2.42,66.24939988222366,875.0,881.7057291666666,0.30412207150254644,0.3527406955029273,0.4693179429738673,64.52945991218282,0.3126687949294591,65.13831437794502,0.014583333333333334,12,0.3771423666666667,0.0017206193988083278,1.1844729775588564e-06,32.931999999999995,0.01956186766816329,2.715278514344474e-05,69.92599999999999,0.938625235828087,2.769999999999996,-0.0015836115406932332
S091,9749.0,9778.984375,N2,0.10341666666666667,23.23051026069428,-54.48,39.89,94.37,4.825,38.83216255289522,859.375,858.1868489583334,0.2732186624299299,0.17809453930582925,0.29372598897139185,64.58503684787358,0.25838993558016254,65.13831437794502,0.008333333333333333,4,0.3775588833333333,0.0016074544689421827,3.6211815378640725e-08,32.96666666666667,0.01849924923401508,2.5069451244967607e-05,68.19133333333332,0.10464968015027756,0.3199999999999932,0.00012993059080148418
S091,9779.0,9808.984375,N1,-0.23370312499999998,24.28150443207302,-64.59,45.29,109.88,4.1899999999999995,36.475004290205085,859.375,857.0068359375,0.2722220007793884,0.29568658332016945,0.4440860914250999,64.53484138063855,0.2740096880652494,65.18435395092905,0.016666666666666666,9,0.37922483333333334,0.0017399844747072333,1.1674955423978715e-06,33.004333333333335,0.015423647068345304,1.6493060029583463e-05,69.09733333333332,0.6599340034343505,1.8299999999999983,0.0011700697618461816
S091,9809.0,9838.984375,N1,0.11355208333333318,24.3366777871598,-53.4,71.58,124.97999999999999,4.08,40.059845448779505,875.0,853.2877604166666,0.34655421854146995,0.2293536169264008,0.40142838497531397,64.5450409642061,0.3262467301808362,65.46754921333164,0.021875,15,0.38149981666666666,0.00143262274624396,3.540955821656884e-07,33.032,0.020396078054370635,1.965278310893507e-05,70.01666666666667,0.10527213412020443,0.4000000000000057,-7.881946582559169e-05
S091,9839.0,9868.984375,W,-0.12317187499999994,28.13789092153365,-148.33,82.18,230.51000000000002,4.085,38.09031838981219,875.0,868.4163411458334,0.31340840191176894,0.25993914552256264,0.42571426906892484,64.55727736386488,0.3106139592541229,65.28399497579785,0.025,15,0.3833901083333334,0.001559499528672769,1.062973595641714e-06,33.08533333333334,0.02109238935940929,3.1875008646650435e-05,69.76333333333332,0.3682330180138055,1.0799999999999983,-0.00042159733658781904
S091,9869.0,9898.984375,N1,-0.12417187499999986,23.764395453984847,-94.42,62.65,157.07,4.07,30.404133762144724,828.125,832.1614583333334,0.49448345663822657,0.4518288454221969,0.8038292685984726,64.34954180839362,0.4342261889099874,65.46754921333164,0.06458333333333334,39,0.3850240916666667,0.001368940460087245,7.856380169373925e-07,33.11933333333334,0.014360439485692298,1.0138891639239471e-05,70.16266666666667,0.3946976339202238,1.019999999999996,0.0006329862828196315
S091,9899.0,9928.984375,N1,0.154192708333333,57.35192856549475,-373.17,144.71,517.88,10.684999999999999,47.43722009946203,843.75,832.2835286458334,0.5041483726019774,0.2635869526308581,0.5253925450450252,64.23518198489542,0.4806024351785802,65.3299318842443,0.06458333333333334,41,0.38494933333333337,0.0017219701039474754,2.780903532146096e-07,33.14899999999999,0.010440306508908473,1.2534725622481669e-05,70.74033333333334,0.15313356552006974,0.4300000000000068,2.3576395284396675e-05
S091,9929.0,9958.984375,N1,0.008291666666667178,59.90607544052409,-201.56,191.45,393.01,8.934999999999999,42.73653107480413,828.125,840.283203125,0.38877338934640177,0.30617913012193076,0.45977047413779076,64.12145789774338,0.39010092872184765,65.612498809297,0.18541666666666667,120,0.3852910833333334,0.001410944881886677,6.75186815100587e-07,33.17399999999999,0.020099751242243367,2.159722808084689e-05,71.52733333333332,0.24804479882114489,0.8799999999999955,0.00042625011562774407
S091,9959.0,9988.984375,N1,0.1537552083333332,55.708772445718346,-117.96,123.39,241.35,9.47,34.82006444498655,843.75,832.6497395833334,0.33029868637677356,0.3155407615859197,0.5965176722724427,64.1045037398088,0.34474667922863456,65.68104749469211,0.134375,86,0.3878434,0.0014766791763954612,1.0148210218155916e-06,33.22833333333333,0.01790406533599404,2.1145839069508442e-05,72.05,0.27110883423452076,0.730000000000004,0.00045875012444393856
S091,9989.0,10018.984375,W,0.5441875000000009,110.35088416928977,-784.31,570.85,1355.1599999999999,6.734999999999999,36.475753255574084,843.75,839.55078125,1.6639166765788551,0.4956013112595872,15.002823808277634,64.34322470094077,1.0764804151707905,72.42927584892728,0.046875,25,0.3686628,0.01198323392745047,-1.7896602511014133e-05,33.26,0.013416407865000835,1.3680559266646904e-05,71.89799999999998,0.5308132125961692,1.4500000000000028,-0.0008811807945911434
S091,10019.0,10048.984375,N1,-0.4456822916666668,57.85278172108763,-408.56,237.78,646.34,5.47,47.4597478995701,859.375,845.4671223958334,0.2282082230235264,0.16975012272945983,0.5219893420979865,64.66724671298148,0.20492493516529384,65.87867636800242,0.025,13,0.35717134999999994,0.0015430728522982848,-1.1599464952111716e-06,33.282000000000004,0.014236104336040846,-1.388889265656334e-07,71.38066666666667,0.24475747633570247,0.8299999999999983,-5.215279192512632e-05
S091,10049.0,10078.984375,N2,0.14854687500000008,39.795262024607624,-95.35,103.69,199.04,3.335,30.300919285850057,812.5,825.6184895833334,0.2614064523559687,0.42096609910683097,0.4723231867147042,64.56670432958926,0.24804303806562994,65.54387843269576,0.06041666666666667,41,0.35412772499999995,0.0015269478978368453,-1.426124301791539e-06,33.294000000000004,0.01665332799572916,1.4722226215881905e-05,71.002,0.5216857291511825,1.5699999999999932,0.0007575696499483661
S091,10079.0,10108.984375,N1,-0.050817708333333475,37.958746167825886,-106.85,81.93,188.78,4.109999999999999,59.08454154070088,812.5,802.8076171875,0.36864405257646565,0.5024246764994287,0.7287193568457384,64.56053533278481,0.31088992303231494,66.23443213314356,0.13229166666666667,57,0.3506783,0.0017716820284689886,-1.722292133868303e-06,33.312,0.013999999999999449,9.513891469696758e-06,72.20933333333333,0.17871641098555013,0.5499999999999972,0.0002454167332402185
S091,10109.0,10138.984375,N1,-0.15813020833333347,42.10122675362476,-116.9,119.2,236.10000000000002,5.255,38.49831282096352,859.375,854.0364583333334,0.47761978573151914,0.3494399661323181,0.6041522986797286,64.52011963680692,0.4342085352935706,66.10597552415364,0.259375,131,0.34891610000000006,0.0016451018023210568,-1.040780664274266e-06,33.339000000000006,0.021656407827706656,3.420139816661016e-05,72.39133333333332,0.43244061891650526,1.2600000000000051,-0.0007000696343504887
S091,10139.0,10168.984375,N1,-0.09989062499999975,36.56534859186067,-109.54,74.04,183.58,4.045,28.880431412573962,843.75,850.6510416666666,0.501663898109747,0.23239907830544904,0.4656040263732692,64.71488189809178,0.47947288699836366,65.39877674696982,0.0875,63,0.34683341666666667,0.0013709121208361759,-7.227428175843103e-07,33.38199999999999,0.021969676071044435,3.0972230623977226e-05,71.83033333333334,0.1278927502071762,0.4099999999999966,0.00012927086840029703
S091,10169.0,10198.984375,N1,0.39739583333333345,51.45518273003038,-210.95,166.42,377.37,4.025,32.15638402530514,859.375,857.3567708333334,0.4696415133286948,0.45745654772399486,0.9795649677492895,64.88138301986075,0.43766893514804184,67.08949247087803,0.009375,7,0.3462139999999999,0.001435619070877319,2.3504910890004228e-07,33.42933333333333,0.02393509742802284,3.270834220604081e-05,71.85066666666667,0.2347613445371468,0.7199999999999989,0.00019520838628699584
S091,10199.0,10228.984375,W,-0.16908333333333356,36.05040169813954,-115.83,85.01,200.84,3.5250000000000004,46.15019594671886,843.75,843.9290364583334,0.2791802701909447,0.49053099771800573,0.5722761571129799,64.94013018655954,0.26479492573830776,65.55913361233506,0.0010416666666666667,1,0.34783734166666663,0.0017424153709522116,8.068211824059153e-07,33.47500000000001,0.01784189825476315,2.42013954539368e-05,70.55833333333334,0.382431547978053,1.460000000000008,-0.0005213543080930755
S091,10229.0,10258.984375,W,-0.051104166666666846,49.03521694308914,-364.56,186.63,551.19,4.045,42.94694983280545,843.75,824.3896484375,0.3041309910584948,0.43890646940878975,1.5006884993969343,64.7390387399595,0.2968383836755594,66.67083320313314,0.115625,53,0.35064627499999995,0.0020823326181732627,2.020867518681503e-06,33.51,0.01549193338482995,1.5486115311988894e-05,70.31633333333333,0.49367656978588303,1.4000000000000057,-0.0006966321334180067
S091,10259.0,10288.984375,N1,-0.13484895833333346,32.55582514405862,-106.32,88.63,194.95,2.99,35.04878443800295,812.5,817.7083333333334,8.436326050018588,5.16233689545948,6.426961438606376,64.66257151853436,6.058204734938094,182.9590118031905,0.014583333333333334,5,0.3616569666666667,0.02608509465030855,2.2323555100790776e-05,33.553000000000004,0.020840665376454643,2.6562507205541795e-05,70.96033333333335,0.4119666922890197,1.5700000000000074,0.0006028821079866842
S091,10289.0,10318.984375,W,0.4145833333333331,207.51077958529584,-989.39,713.72,1703.1100000000001,4.555,14.439885487805405,812.5,809.7330729166666,32.05961310305707,39.40609613151738,24.736216349829164,69.68591670912083,17.285624202676072,150.23648025696022,0.12604166666666666,53,0.3860859583333333,0.11456201487123294,-0.00012994893216930665,33.63533333333333,0.03499841266241677,5.972223842291408e-05,72.294,0.969152894714416,2.719999999999999,0.001665278229513407
S091,10319.0,10348.984375,W,-0.3176927083333334,12.669101834423328,-37.01,27.17,64.18,1.475,22.663146098529047,765.625,764.7705078125,0.5128460467901975,0.28012893856619353,0.2530285309999645,64.9628607310622,0.2712943726236928,66.11353870426238,0.07708333333333334,46,0.291491375,0.005802526011807981,-9.978023323031483e-06,33.73766666666667,0.020604745947368407,3.309028675409447e-05,75.67033333333333,0.9168114431126079,3.0700000000000074,0.0016460073909525259
S091,10349.0,10378.984375,N1,-0.11705208333333333,13.794794502720485,-29.46,32.04,61.5,1.475,44.51282781975212,796.875,780.4768880208334,0.4342026036790506,0.26391607133392486,0.395437027487732,65.05348197293786,0.2616133214943876,65.86349520030045,0.06875,32,0.278932025,0.0033411593184165386,-5.501592855249797e-06,33.79933333333334,0.019136933459209065,2.513889570824973e-05,77.65366666666665,0.18716273370756487,0.7000000000000028,0.00029940980344232937
S091,10379.0,10408.984375,N1,0.08871875000000003,15.361762615340243,-45.12,35.05,80.16999999999999,1.6349999999999998,38.68967796033246,781.25,779.052734375,0.5137423542956354,0.13981246740425785,0.3254787472793816,65.12771513505163,0.2591903179154821,66.11353870426238,0.016666666666666666,10,0.271402925,0.001913180472243794,-2.1514218075688456e-06,33.848333333333336,0.019677962857526612,2.309028404141787e-05,77.27966666666667,0.3655815762437838,1.210000000000008,-0.0006560765668610493
S091,10409.0,10438.984375,N1,-0.07961979166666672,15.641703615362948,-37.99,33.12,71.11,1.29,25.004512326661487,781.25,779.1097005208334,0.5700410788682007,0.16120948565108964,0.29046627983678625,65.20032223851355,0.2567034488707338,66.49060083951716,0.013541666666666667,8,0.2669708250000001,0.0020115184341789353,-2.4540047889552953e-06,33.90866666666666,0.021249836600679542,3.027778599115278e-05,77.47633333333333,0.5949312752093482,1.6800000000000068,0.0010307988907332047
S091,10439.0,10468.984375,W,0.10243229166666663,20.84508542625113,-116.19,56.65,172.84,2.3449999999999998,68.06530871753834,734.375,741.2109375,0.5666513478321569,0.3657184709581948,0.293592969257137,65.29299665359862,0.342485512823109,66.11353870426238,0.240625,129,0.26385225833333337,0.0014812623135681327,-8.084761307715202e-07,33.96233333333334,0.018199511592957775,2.565972918286784e-05,78.41833333333334,0.11410764897918022,0.37000000000000455,0.00016927087925100028
S091,10469.0,10498.984375,W,0.024026041666666696,17.19828720848596,-66.85,51.11,117.96,1.635,37.27252543549352,750.0,748.7874348958334,0.9532268843541686,0.5520941429759361,0.44719418476640427,65.17768904570269,0.5093875358573635,69.54135460285484,0.011458333333333333,7,0.2614708,0.0016460060125447098,-1.4077438714582998e-06,34.00833333333333,0.0191630431357396,2.8645841104014733e-05,78.06733333333335,0.25373126641302046,0.9699999999999989,-0.00039493066268735257
S091,10499.0,10528.984375,W,-0.0456041666666667,15.702905107070134,-30.31,43.71,74.02,1.1,28.496513755793547,765.625,764.208984375,0.35520527857924006,0.26672362672915867,0.5359868478252677,64.99078828408724,0.37016421529187155,68.11754546370561,0.036458333333333336,24,0.2611931916666667,0.013317812532654547,4.869311867760379e-06,34.059999999999995,0.020493901531919972,3.1736119720085735e-05,78.344,0.16489592677403048,0.6499999999999915,0.00026236118228113573
S091,10529.0,10558.984375,W,0.6698906250000012,205.28917348675125,-1355.73,736.06,2091.79,3.7699999999999996,8.18857992490294,750.0,752.63671875,38.666549422864634,27.128932046674002,21.94146744651773,69.02549806918883,21.06830141785863,168.67424225411537,0.12395833333333334,48,0.272609675,0.016234218659548775,-6.716306292400795e-06,34.115,0.030413812651489406,5.02430691848578e-05,79.247,0.6381021339357306,2.160000000000011,0.0009751738756439528
S091,10559.0,10588.984375,W,-0.3668020833333314,188.02373064817286,-815.08,627.21,1442.29,-7.345,0.0,750.0,750.0,34.85392320036006,23.676151268499886,23.3882604061608,67.44792335985701,17.13079369953968,166.06926265868708,0.1125,44,0.273442725,0.028528823450726257,-1.060703260824452e-05,34.245333333333335,0.046599952312803485,5.19444585352815e-05,82.88799999999999,0.7307138062652614,2.6999999999999886,0.0010586113982778312
S091,10589.0,10618.984375,W,-1.415875000000001,151.2452337278111,-797.68,464.71,1262.3899999999999,1.96,15.729577520196163,750.0,740.5843098958334,25.42100456066329,13.828992792921206,26.9563786482233,65.35485638359116,7.474821430208754,124.52710548310355,0.084375,42,0.27335726666666665,0.02838835499042208,-1.0166548764797295e-05,34.37466666666666,0.03836085968217493,6.666668475116144e-05,85.51133333333334,1.132483210569685,3.1799999999999926,0.001982083871007993
S091,10619.0,10648.984375,W,0.43790625000000216,157.93222900646197,-475.59,811.24,1286.83,8.125,0.0,750.0,750.0,36.17979394958427,24.486261737735486,24.274026949222854,67.37355101681686,13.241523957525047,176.6861624462991,0.08645833333333333,34,0.26049886666666666,0.014350521358086222,3.928920770649082e-06,34.47733333333334,0.018785337071473746,2.659722943718272e-05,84.278,1.1376214953430974,3.6299999999999955,-0.001966319977842875
S091,10649.0,10678.984375,W,0.47755729166666677,60.41525517306806,-351.11,268.88,619.99,5.345000000000001,23.649977658337182,765.625,767.0654296875,0.6872719002916935,0.35037182630266767,1.3721620808205082,64.8460338584094,0.6309856052427663,72.75300681071539,0.010416666666666666,6,0.2663727416666667,0.001669429935116746,1.5134025372728303e-06,34.57033333333334,0.04028923208777136,6.850696302814936e-05,81.32199999999999,1.8221734275309793,5.5,-0.003224167541278087
S091,10679.0,10708.984375,W,0.34646875,49.19559429513081,-144.97,138.36,283.33000000000004,5.915,33.00331782349982,781.25,794.2057291666666,0.3041309910584948,0.045595976308831845,0.25632409159217856,64.87159611720902,0.29926388418762906,65.95452979136459,0.0010416666666666667,1,0.26879715,0.0017347027009932585,1.6831697274223366e-06,34.664666666666655,0.02753583523741779,4.22222336757358e-05,77.41066666666666,0.2609078168412927,0.8300000000000125,7.777779887635484e-05
S091,10709.0,10738.984375,W,-0.2835468749999999,51.17495709850924,-93.5,79.12,172.62,6.609999999999999,26.66032392847338,828.125,829.3212890625,0.19249988726547926,0.0,0.11987768650679835,64.93092894990946,0.18953636892714645,64.96922348312314,0.0,0,0.2715097083333333,0.0017085194389482017,1.5390331865866932e-06,34.73466666666666,0.016069294390925595,2.3125006273059786e-05,75.661,0.7881342948169862,2.549999999999997,-0.001371007316353982
S091,10739.0,10768.984375,W,0.3256614583333326,80.65135052844728,-454.12,333.33,787.45,6.970000000000001,32.616309321009766,828.125,832.6741536458334,49.39733644512894,16.355060982713084,21.222833942608975,63.68117598564353,5.38356992018298,105.94810050208545,0.053125,13,0.2582134166666667,0.016341799758891988,-2.1033168032000867e-05,34.74933333333333,0.010934146311239528,6.319446158704914e-06,73.546,0.3876476062955451,1.1799999999999926,-0.00067312518259689
S091,10769.0,10798.984375,W,0.02149479166666642,123.16104527205499,-619.43,717.71,1337.1399999999999,7.725,22.90559992750329,765.625,785.5712890625,46.988482585200835,18.225375320018944,18.010595719179367,65.30319363227923,9.836114650869389,156.9872606296447,0.078125,23,0.2714134916666667,0.0201736945178599,1.4437190331269077e-05,34.72866666666666,0.017074997966487673,-1.6944449040921094e-05,73.06166666666667,0.42861858206205833,1.5500000000000114,0.0006017015521108819
S091,10799.0,10828.984375,W,-0.2607395833333334,64.31649269898702,-119.7,96.62,216.32,10.015,22.895130962397054,859.375,854.7444661458334,0.04559597630883186,0.045595976308831845,0.4866935994259861,64.5599942804231,0.07109977782042413,65.49045732013177,0.0020833333333333333,2,0.2799894,0.002266923426879111,3.176639750607569e-06,34.721000000000004,0.014224392195566728,-5.451390367672996e-06,73.89666666666666,0.4288537694314409,1.4299999999999926,-0.0005959723838900767
S091,10829.0,10858.984375,W,-0.3167135416666668,66.72241287744902,-122.95,101.44,224.39,9.46,17.181115939596108,859.375,853.3284505208334,0.14337208778404378,0.12801909579781015,0.35910164724706506,64.54454223876198,0.14428162971486128,65.49045732013177,0.01875,15,0.28485923333333335,0.004027988947629105,2.461207698895317e-06,34.709333333333326,0.0136463263269718,-1.0277780565803378e-05,71.90733333333334,0.6103984126963489,2.3499999999999943,-0.0010600697320067632
S091,10859.0,10888.984375,W,0.034708333333332675,171.22461253976923,-1107.67,863.18,1970.85,15.54,21.390643405650962,843.75,829.6630859375,17.4856189670175,11.170773498534269,20.88840388030322,64.04674821432764,3.0192923846249085,88.4420714366189,0.065625,25,0.289088575,0.013127866781305647,4.073331617114689e-06,34.67999999999999,0.017320508075690248,-2.0347227741763043e-05,71.30833333333334,1.04083967171809,2.9000000000000057,0.0017645490897756847
S091,10889.0,10918.984375,W,0.6625572916666658,123.31456893631766,-592.52,524.71,1117.23,9.285,10.98112760304453,812.5,807.2509765625,21.251026706201948,13.721432405119515,16.180787399239104,64.4922410728399,3.1154533756798224,106.66770832824712,0.04791666666666667,29,0.27610196666666664,0.00975410521518447,-9.859792171167581e-06,34.664333333333325,0.009893881386438251,-6.076390537215882e-06,73.47166666666666,0.21313662806336703,0.9000000000000057,0.000334618146326537
S091,10919.0,10948.984375,N1,0.0851562499999993,87.8650359244018,-324.57,288.41,612.98,4.87,29.846061319675744,828.125,817.8792317708334,1.5262958406074345,2.317672284363847,7.594986181960218,64.64708838577239,1.0220509978144612,77.07139547199077,0.034375,23,0.2881593666666667,0.0030092045569478174,4.396275498121596e-06,34.68433333333333,0.021084486134493003,2.9340285736842092e-05,73.33466666666666,0.8922695158352605,2.3599999999999994,-0.001477361511871071
S091,10949.0,10978.984375,W,-1.0289583333333339,96.13682020984864,-314.71,355.13,669.8399999999999,8.275,28.53055821341797,843.75,842.4397786458334,1.2986333461406008,0.7478375944737823,6.111890644331253,64.57506112591993,1.1039801856791605,80.93207028119323,0.020833333333333332,15,0.29502633333333333,0.004910715657846855,4.849109388321783e-06,34.71699999999999,0.012948616399702058,6.145835000497095e-06,71.75233333333334,0.21853578400090212,0.8799999999999955,-0.0003291320337272233
S091,10979.0,11008.984375,W,-0.11296354166666613,97.14727326879108,-332.03,197.61,529.64,11.92,17.007022778391345,859.375,854.1666666666666,0.5012311232244949,0.4330127018922193,0.2950988534937629,64.603845880016,0.4670091124820381,65.94694837519019,0.28020833333333334,193,0.302790475,0.0026226641542602624,3.512139624603857e-06,34.748666666666665,0.015434449203722712,1.9027782939397216e-05,70.50566666666667,0.20457571268902372,0.8699999999999903,-0.000327048699828748
S091,11009.0,11038.984375,N1,1.2467604166666666,102.58414046591267,-302.91,225.85,528.76,13.425,28.202194663471932,843.75,843.7744140625,0.9539301016787807,0.4952508833914383,3.678247425509041,64.6149226096633,0.5085775724735702,67.26812023536856,0.19791666666666666,131,0.30600505833333336,0.004065276799300456,-2.441837684960311e-06,34.78333333333333,0.015776212754931775,2.0694450058172386e-05,69.9,0.07598245411496961,0.269999999999996,-2.2986117346495e-05
S091,11039.0,11068.984375,W,0.1790052083333333,126.24093820572814,-499.77,517.15,1016.92,10.025,21.89667702454966,859.375,843.2047526041666,10.947578491446814,3.6805217339903047,16.02838055730929,64.9687839882532,4.167686059157334,111.01351269102334,0.05520833333333333,28,0.31203912500000003,0.024294548562233217,-1.1600712782311402e-06,34.812999999999995,0.016563010998405812,1.8229171611645844e-05,70.631,0.22713212014155856,0.8199999999999932,0.00039496538491899316
S091,11069.0,11098.984375,W,-0.5519322916666666,52.18135128214708,-120.32,112.26,232.57999999999998,4.165,52.11656082735456,828.125,816.9026692708334,0.24016912082368583,0.463089667268182,0.29233368669210874,64.76408182563009,0.23751550775579022,65.12296062065974,0.034375,23,0.302139075,0.0015328662377090676,4.977763937110455e-07,34.82833333333333,0.008975274678557259,-1.8402782769863976e-06,71.70700000000001,0.606268092513535,1.5800000000000125,0.001033854447117635
S091,11099.0,11128.984375,W,-0.1548593749999999,53.86685563035082,-98.74,86.82,185.56,7.074999999999999,21.8709063862507,859.375,855.3059895833334,0.21137108216357317,0.3852251776558744,0.48893019376491775,64.78890917702832,0.21736524739778862,65.12296062065974,0.058333333333333334,51,0.3028225749999999,0.0013997310971665348,5.651162557281597e-07,34.834333333333326,0.012827920936595821,6.59722401184159e-07,72.15266666666666,0.17015548445139525,0.4899999999999949,-0.0002944445243176337
S091,11129.0,11158.984375,W,0.13956770833333323,51.15349259694012,-92.82,87.3,180.12,6.904999999999999,29.757784580956386,843.75,836.6455078125,0.25654623798103576,0.3121091305537215,0.39514743204980535,64.80356596114852,0.2640335567187979,65.12296062065974,0.0020833333333333333,1,0.3044351,0.001437504292167512,3.540582557666714e-07,34.84000000000001,0.01183215956619868,5.277779209466533e-06,71.38666666666664,0.5094397794527733,1.3700000000000045,-0.0008574307881485461
S091,11159.0,11188.984375,W,-0.45577604166666663,50.52821321344732,-95.26,89.13,184.39,4.925000000000001,27.58493653331821,859.375,846.9156901041666,0.2900232719350102,0.254795584597841,0.3151278400198173,64.78631904564732,0.29145814267356757,65.12296062065974,0.0020833333333333333,2,0.30645355,0.0015659988338118209,2.7204955296483026e-07,34.83733333333334,0.00997775303139763,1.2500003390852288e-06,71.02300000000001,0.15358276813062818,0.4099999999999966,0.00025739590315643804
S091,11189.0,11218.984375,N1,0.5651041666666677,119.83224997318118,-847.47,491.17,1338.64,9.62,24.498647689260977,828.125,822.5667317708334,7.728956365063497,8.440872782676761,9.172139405615336,64.89040430707179,3.484341716607407,91.6624241442479,0.05416666666666667,21,0.31112065833333336,0.008158844209910938,2.7436793467012073e-06,34.841666666666676,0.01614173335040384,8.159724435688574e-06,71.48333333333333,0.4245337311555925,1.3200000000000074,0.0006222918354741294
S091,11219.0,11248.984375,N1,0.1389322916666668,71.06517152377633,-131.01,110.49,241.5,9.485,13.661347226248445,859.375,857.3811848958334,0.21137108216357317,0.0,0.22634628092568448,64.8995322172121,0.20838982791592792,64.94613152451807,0.0,0,0.3145915166666667,0.0014956715714762477,3.386463592248173e-07,34.84500000000001,0.012845232578663402,2.1180561301149517e-06,72.58366666666666,0.21301773530754456,0.5999999999999943,-0.00025982645937132624
S091,11249.0,11278.984375,W,-0.2882708333333336,80.65023421340231,-205.6,219.05,424.65,7.215,33.94450239515448,859.375,860.6852213541666,0.3690132652501202,0.17633419974582354,0.9598154300292439,64.81991729608414,0.3625558285424857,65.95452979136459,0.005208333333333333,4,0.31242359999999997,0.002423942715907289,-1.0242272743672111e-06,34.84900000000001,0.015132745950419437,3.020834152785924e-06,71.55133333333333,0.6375041612064637,1.9300000000000068,-0.0011171530808249486
S091,11279.0,11308.984375,W,0.16576041666666713,80.03136707752009,-217.81,141.09,358.9,9.29,12.174261570582175,875.0,875.5533854166666,0.2986060642338368,0.07880950133074056,0.42335773387684006,64.848124279917,0.2939428115101839,65.12296062065974,0.0,0,0.3138973333333333,0.0014419182439452708,-3.8963335222258783e-07,34.851000000000006,0.015779733838057305,9.409724774773061e-06,69.52166666666668,0.28872228101681896,1.0499999999999972,-0.0005036459699560448
S091,11309.0,11338.984375,W,-0.7270052083333333,76.27134807260504,-173.0,125.03,298.03,6.29,65.41383010237992,843.75,825.6591796875,0.5536769452688294,0.5223477981404939,1.0625714845233813,64.84618882061086,0.49468384686297084,70.04284403134984,0.019791666666666666,11,0.31581960000000003,0.0017070144668396951,1.3173701490261919e-06,34.86266666666667,0.01730767331432761,6.944446328269364e-08,69.30233333333334,0.16596552520193897,0.45000000000000284,0.0002884375782436998
S091,11339.0,11368.984375,N1,0.6646718750000002,78.12493067128018,-145.72,135.45,281.16999999999996,9.485,19.82715837537187,843.75,848.4049479166666,0.2667236267291586,0.0,0.3800527649770051,64.86891732633572,0.26343546145606106,64.96922348312314,0.0,0,0.3175283,0.0013420013512164047,1.0876096700330005e-06,34.88133333333334,0.009910712498213887,-2.5694451414514487e-06,70.122,0.3488590928536437,1.1800000000000068,0.0006279168370000112
S091,11369.0,11398.984375,N1,-0.9108072916666662,145.55037552956088,-807.36,763.78,1571.1399999999999,3.12,15.42750475932709,843.75,845.1416015625,28.9172062382116,14.315684348272526,14.438544296948033,65.39277964374757,5.407170744878679,120.17071190602142,0.06354166666666666,26,0.32715075833333335,0.017550636049725673,-2.293374537048208e-06,34.88999999999999,0.013662601021279521,8.61111344702606e-06,71.12966666666667,0.24339930612518682,0.8400000000000034,0.0004187153913615975
S091,11399.0,11428.984375,N1,0.9293385416666662,96.70589428956087,-184.55,147.47,332.02,18.98,10.247442236491917,843.75,848.7060546875,0.45734267938700945,0.0,0.4994256684071103,64.88242285360982,0.44646348716226586,65.21502894272147,0.0,0,0.3276100666666667,0.0016435137395903365,1.2652846314248652e-06,34.89866666666665,0.009910712498210366,6.944446328244682e-08,71.73933333333333,0.030103525079666762,0.12999999999999545,2.583334034107391e-05
S091,11429.0,11458.984375,N1,-1.0218177083333335,107.32576197550624,-218.22,203.44,421.65999999999997,15.91,39.20029728310715,875.0,868.9046223958334,0.4598035132894629,0.13215215741081693,0.4830447683847625,64.8913972430175,0.4428850666209444,66.783231428256,0.003125,2,0.3310704166666667,0.0017239023444080457,1.74519231369149e-06,34.89199999999999,0.010770329614268315,-3.26388977427582e-06,71.21133333333334,0.45610476379397286,1.3900000000000006,-0.0008118057757719661
S091,11459.0,11488.984375,N1,1.1644999999999996,111.44280352335826,-236.03,202.14,438.16999999999996,15.82,21.041766817968746,859.375,856.8277994791666,0.3952792174175392,0.12801909579781015,0.4828841303390839,64.95023185352633,0.3855284336759023,66.11353870426238,0.0010416666666666667,1,0.3347975083333334,0.0019500840537262064,2.173635789289229e-06,34.89933333333332,0.013399834161493434,1.666667118779047e-06,69.70433333333334,0.2579235459502601,0.9699999999999989,-0.00043177095045870116
S091,11489.0,11518.984375,N1,0.19340104166666722,115.57642705309763,-255.17,227.62,482.78999999999996,17.645,37.732483627976414,875.0,866.7887369791666,0.33385376040016884,0.23437268517375387,0.5221483399273514,64.96281893730712,0.3273464810430702,65.13063795173512,0.0,0,0.33844979999999997,0.0015270762401836109,8.315553471015971e-07,34.89199999999999,0.013999999999999447,-2.569445141451276e-06,69.44033333333333,0.164529294926129,0.46000000000000796,0.0002162847808932252
S091,11519.0,11548.984375,W,-0.04228645833333348,111.72072477989491,-223.02,172.94,395.96000000000004,16.744999999999997,20.144447202706267,828.125,833.837890625,0.2662248129714183,0.26170307270624255,0.493429044769582,64.9955069375574,0.2675405201582576,66.04543890383347,0.0020833333333333333,1,0.33961399166666667,0.0017106745672191908,1.2507327611579791e-06,34.905333333333324,0.016069294390925,1.437500389946834e-05,70.00500000000001,0.29699326591692315,1.019999999999996,0.0005105904162842928
S091,11549.0,11578.984375,N1,-1.1646041666666664,109.07109701813377,-230.86,178.19,409.05,15.045,26.85193587676113,875.0,871.2158203125,0.20912350152216005,0.2914805954090255,0.1579903082470567,65.00185850159626,0.209303619464965,65.13063795173512,0.0,0,0.3423267333333334,0.001687207390598114,1.54609764162805e-06,34.92399999999999,0.0147422295916652,1.965278310893872e-05,70.566,0.1376856322690669,0.36999999999999034,-0.00018500005018446994
S091,11579.0,11608.984375,W,0.620265625,106.27210859972398,-209.59,177.79,387.38,16.455,18.419056016749888,828.125,827.0589192708334,0.2617030727062426,0.3611084401610623,0.2950988534937629,64.96146204875939,0.2604294291964374,65.13063795173512,0.0,0,0.34420631666666673,0.0015077888169066972,9.83123530578216e-07,34.946000000000005,0.017435595774162812,1.944444971908663e-06,70.53233333333334,0.1385564465800443,0.4200000000000017,0.0002280903396512394
S091,11609.0,11638.984375,W,-0.7741979166666664,103.56007859109688,-202.77,168.78,371.55,13.295,31.963278336890884,828.125,840.2669270833334,0.2402165544993841,0.4353917456983104,0.46651783340928016,64.95789452920545,0.2437997797778673,65.79513659838392,0.0010416666666666667,1,0.34643826666666666,0.00161412948021182,1.0979651415921027e-06,34.95466666666667,0.014313940369055296,2.986111921145242e-06,71.60066666666665,0.4656746599170791,1.230000000000004,0.0007987502166748603
S091,11639.0,11668.984375,W,-0.0034687500000002793,126.6166269296853,-490.23,571.27,1061.5,13.23,21.716844946284894,812.5,824.267578125,17.48087865945523,10.245209278049995,9.949947164066167,64.83964221516167,3.6381894411676616,104.85704554296768,0.030208333333333334,9,0.3427752333333334,0.008845717075448936,-3.4865569353724314e-06,34.976000000000006,0.012806248474866257,1.2152781074431517e-05,71.84133333333332,0.2994409606064089,0.980000000000004,-0.0004496528997539327
S091,11669.0,11698.984375,W,-0.24805729166666665,107.34204947768436,-291.08,262.47,553.55,15.575,18.928691831356044,843.75,838.1429036458334,23.426148640016923,15.41722845260205,12.028611002060416,65.94410378210014,10.227626461807919,191.06805070445452,0.0375,12,0.3420596833333333,0.013610699681980188,-2.909801570584197e-06,35.00366666666667,0.015807874268505957,1.697917127256163e-05,71.01933333333334,0.15897449131508223,0.46999999999999886,-0.00021722228114753658
S091,11699.0,11728.984375,N1,0.9099739583333327,166.26988851854105,-931.33,541.99,1473.3200000000002,12.47,19.38501673358821,828.125,818.3349609375,22.576650302666444,17.322376062671,16.05579991584038,66.22218517414485,12.972177885559727,148.68086628749512,0.08333333333333333,34,0.29629728333333333,0.01189215666744496,-1.5097473713507407e-05,35.035999999999994,0.020428737928059063,2.111111683786786e-05,74.43633333333334,2.6168129258487105,7.38000000000001,0.004659133208315214
S091,11729.0,11758.984375,N1,0.35121874999999925,139.25428921608537,-840.38,478.17,1318.55,4.220000000000001,12.678960719145573,796.875,789.7542317708334,18.815809394222782,7.024658947830374,11.942657953448034,65.40487355265128,8.628949273329672,149.93665329064805,0.059375,23,0.28277677500000004,0.0090541812122563,-8.665237376637744e-06,35.052,0.013012814197295457,-2.083333898480813e-07,80.551,1.8962284496687984,5.510000000000005,0.0033031606182618877
S091,11759.0,11788.984375,N1,-0.13122916666666676,27.53387662365489,-50.0,53.58,103.58,0.30000000000000004,17.94561841422851,812.5,813.8020833333334,0.19895287950640192,0.48462023361941187,0.5071868474870862,64.88556906335351,0.31359845575168455,65.73431371817918,0.1125,73,0.2780135166666666,0.0014036920482744357,-5.671963344174085e-07,35.05,0.01154700538379227,-6.66133995475505e-19,81.78366666666668,2.1541347579841785,5.799999999999997,-0.0037703829672262813
S091,11789.0,11818.984375,N1,-0.1779999999999999,28.342168056919476,-49.19,55.91,105.1,-0.5700000000000001,26.866059652101928,781.25,780.0862630208334,0.5188869882712634,0.5001030709735966,0.5522906450386629,64.88519053060483,0.3484606249062358,65.73431371817918,0.18020833333333333,107,0.2767745833333333,0.0015163635095370586,-1.5164457238622322e-07,35.052,0.01077032961426924,-1.7361115820612223e-06,77.41766666666668,1.0990956383419153,3.3599999999999994,-0.001946146361259321
S091,11819.0,11848.984375,N2,-0.1427135416666667,28.6738034438889,-50.97,53.58,104.55,0.9299999999999999,22.93411371017812,796.875,788.6149088541666,0.4868485230284672,0.49827719687996513,0.5601184150596095,64.87252941739862,0.3516773930078281,65.60487786742691,0.19895833333333332,120,0.27645427499999997,0.0014423144881433878,-3.145211356665381e-07,35.05733333333334,0.00963788819653548,4.861112429773006e-07,75.83833333333332,0.3267117315854387,1.019999999999996,0.0005639237640852234
S091,11849.0,11878.984375,N1,0.26567187500000006,28.052773005508456,-49.3,52.28,101.58,1.49,16.204922746286318,796.875,794.5963541666666,0.4182664600433822,0.4915254034352875,0.49738792532980625,64.87177322744103,0.33372392902098486,65.55913361233506,0.19479166666666667,132,0.27636874166666664,0.001449878515001818,-1.1705927654602872e-07,35.06666666666668,0.016397831834999866,1.2291670000996782e-05,76.60433333333334,0.28662034509473144,0.9500000000000028,-0.00036482648785440906
S091,11879.0,11908.984375,N2,0.09629166666666666,28.92523814901842,-51.83,53.37,105.19999999999999,1.085,56.728923271741365,781.25,770.6461588541666,0.3579394637675793,0.49607837082461076,0.48789046862487484,64.8818478525628,0.33693852588651174,65.55913361233506,0.21770833333333334,128,0.2758240916666666,0.001313034329303901,-2.4022988287485816e-07,35.08933333333334,0.017499206331208866,2.2013894860539426e-05,75.73766666666667,0.15243978774876527,0.5300000000000011,-0.00025802090332598213
S091,11909.0,11938.984375,N2,-0.29829166666666657,28.573421839591838,-65.92,70.16,136.07999999999998,-1.8900000000000001,30.22312262676531,765.625,757.5764973958334,0.6389069102228865,0.7336402944203801,0.8715308211544915,64.86238522194111,0.33251564452047555,65.68104749469211,0.16979166666666667,98,0.27619795,0.001487134772249417,5.203721029655224e-07,35.10800000000001,0.013012814197294399,3.819445480534507e-06,75.925,0.4922042259062797,1.5999999999999943,0.0008330210593047566
S091,11939.0,11968.984375,N2,0.30581250000000004,25.937055692303954,-47.02,50.61,97.63,2.1100000000000003,29.635945669055197,796.875,801.6438802083334,0.4742684425044066,0.23040385738958447,0.3716152220562135,64.89146766917146,0.30022004298417193,65.55913361233506,0.13958333333333334,85,0.2764007916666666,0.001403258261427266,1.4740390283308886e-07,35.126000000000005,0.014047538337136956,1.3611114803363026e-05,77.11633333333334,0.06478082706754906,0.23999999999999488,-2.899306342042561e-05
S091,11969.0,11998.984375,N1,-0.239546875,25.42698561881178,-66.1,50.12,116.22,1.065,32.407228769587086,781.25,778.6376953125,0.6615157455399094,0.504132230228891,0.658576398957546,64.86525902886933,0.2705016038537557,66.46803743153546,0.10104166666666667,65,0.2767746333333333,0.001507314565340917,5.375218472010186e-07,35.143333333333324,0.011642832797713682,-4.166667796940648e-07,76.73899999999999,0.2872437988886795,1.0300000000000011,-0.0003293403671170709
S091,11999.0,12028.984375,N2,0.1203489583333333,25.986387256381843,-49.73,94.12,143.85,1.005,22.061919320269233,781.25,787.5406901041666,0.5431230421266335,0.3093153702354426,0.41814321709194324,64.84592618500584,0.22963494676778826,65.68865959965997,0.08020833333333334,61,0.27646489999999996,0.0014703591023964154,4.948525647928744e-08,35.15266666666665,0.008919392106837995,4.51389011335905e-06,76.23266666666665,0.3656677301716517,0.9699999999999989,0.0006147918334396225
S091,12029.0,12058.984375,N2,0.07235416666666653,27.97044493895117,-85.72,129.29,215.01,0.05,63.905671295057815,765.625,748.2666015625,0.6882445463318656,0.5618012635463028,0.7625996064267423,64.8573779671656,0.29527934382468163,67.29784543356496,0.13645833333333332,85,0.2771697833333333,0.0017253083646280572,1.3067000072428378e-06,35.16566666666666,0.01145522685162737,4.687501271566475e-06,76.77466666666666,0.1684385809592202,0.6700000000000017,5.9027793790111346e-06
S091,12059.0,12088.984375,N2,-0.14460416666666667,22.159954693789786,-40.48,42.29,82.77,0.89,33.177040175924375,781.25,785.0341796875,0.4416654382844553,0.11987768650679832,0.3167146345248704,64.85680769477263,0.22756825338939835,65.55913361233506,0.10833333333333334,71,0.27772516666666663,0.0013442551489786254,3.7497449407945256e-07,35.182,0.017776388834632437,4.652779039925078e-06,77.38966666666666,0.2485488997271084,0.6899999999999977,-0.0003312153676256975
S091,12089.0,12118.984375,N2,0.1147708333333335,32.582330194216965,-193.91,90.85,284.76,1.895,15.139498985121701,781.25,778.2145182291666,0.496706819895354,0.14994211846205485,0.32392986209294683,64.87142471270042,0.2312230044258503,65.55913361233506,0.10625,66,0.27872915,0.0014630992997173241,1.174067158763883e-07,35.20066666666666,0.01806162291219175,1.0208336102521919e-05,77.47233333333331,0.11680991206038617,0.4199999999999875,-2.107639460622609e-05
S091,12119.0,12148.984375,W,-0.055161458333333226,26.57607490525575,-67.79,65.92,133.71,-0.045,32.289812588531625,765.625,760.1888020833334,0.5809325596735726,0.6207765284415069,0.7387164814260987,64.84230823757623,0.23730238758789515,65.95452979136459,0.096875,58,0.27917774166666665,0.0014033493417287596,-5.00104953370483e-07,35.208666666666666,0.016478942792410228,1.3472225876796135e-05,77.31666666666666,0.3160836738727403,0.9699999999999989,0.0005409029245070869
S091,12149.0,12178.984375,N1,0.08099999999999993,27.779533959748736,-54.17,60.86,115.03,0.01,22.093452618276345,765.625,770.2229817708334,0.6260399334418603,0.6605834108637101,0.830819123917274,64.85224589590128,0.2676171224420451,66.21933252457322,0.12604166666666666,76,0.2796904166666667,0.0014976449767514584,-6.40100000027138e-08,35.224333333333334,0.014533486237726847,7.29166864466384e-07,77.90366666666667,0.02483053675528655,0.060000000000002274,1.3854170424851589e-05
S091,12179.0,12208.984375,W,0.1051770833333336,90.63795749936195,-403.07,257.39,660.46,3.965,31.120502458486047,796.875,787.060546875,18.05719690389518,32.834492480992836,11.409322788157718,64.77408808887502,6.372287965976321,107.22872749408155,0.07604166666666666,22,0.2853505833333333,0.007892838000980522,3.6510283341548244e-06,35.24333333333334,0.012995725793080651,1.0416669492370738e-05,77.96233333333333,0.09857935325862517,0.30000000000001137,-0.00011302086399220311
S091,12209.0,12238.984375,N1,-0.019671874999999398,82.99811972108816,-496.28,383.97,880.25,5.484999999999999,35.197804699460306,750.0,770.4752604166666,3.1301284307605584,2.749494903108973,2.5366677274964933,64.37791836145217,2.3612060716643297,85.47514258543241,0.04583333333333333,15,0.28248841666666663,0.001325456365328156,-3.6458343222726014e-11,35.275999999999996,0.013808210118137825,1.5347226385422745e-05,79.05733333333333,0.5765872777723158,1.6800000000000068,0.000984861378271859
S091,12239.0,12268.984375,N1,-0.44772395833333295,67.26833161687267,-125.13,120.37,245.5,5.96,43.92162673682805,812.5,810.4248046875,0.5511194415813045,0.40839577541277283,0.40747012288223866,64.32751381374945,0.36246821728252243,65.81033353509159,0.209375,127,0.28257383333333336,0.0015884662326351988,-3.4205347820461117e-07,35.29666666666666,0.01659986613065129,1.7500004747179953e-05,77.98866666666666,0.6759819195478207,2.4000000000000057,-0.0011915281010004624
S091,12269.0,12298.984375,N1,0.3204322916666666,68.23290264456516,-129.72,114.31,244.03,7.005,17.9261942969408,796.875,792.1468098958334,0.5217117592332209,0.356485972043626,0.4622888031306836,64.57426162361517,0.396792260805459,65.28399497579785,0.010416666666666666,10,0.2823389,0.0016158968170441352,1.1696556992338672e-06,35.32066666666666,0.011234866364233556,1.0833336272062336e-05,75.64833333333333,0.7200837142690817,2.1000000000000085,-0.0012698267333514375
S091,12299.0,12328.984375,W,0.0026145833333337384,70.90376058313565,-126.22,117.51,243.73000000000002,6.245,32.676210888950756,781.25,778.4423828125,0.40631810326598383,0.4261919050504779,0.36795317627458474,64.60781905496245,0.33154983722800574,65.28399497579785,0.014583333333333334,10,0.2823602416666667,0.0014534489441545314,-1.7798898057426774e-07,35.344333333333346,0.011742609969203933,4.6180568082837085e-06,75.79066666666667,0.5187159359632422,1.519999999999996,0.0009047224676438988
S091,12329.0,12358.984375,N1,-0.5645104166666661,71.34656997470967,-160.67,146.82,307.49,6.8100000000000005,23.316195188585947,796.875,789.8274739583334,0.31349667451275387,0.4383808097704552,0.28563518095154566,64.6302506906988,0.28223038596734107,65.76473218982953,0.023958333333333335,16,0.28189036666666667,0.0012297043271543944,-4.2329785788245194e-07,35.36866666666666,0.02232089205704276,2.1041672374583884e-05,76.23533333333332,0.13598365914901767,0.4100000000000108,-0.00010784725147766482
S091,12359.0,12388.984375,N1,0.0623541666666665,67.72794121120101,-136.39,149.01,285.4,6.220000000000001,34.54785955858704,796.875,797.6318359375,0.3736027208888548,0.48626535251399067,0.1546129520142331,64.31961156407718,0.2869841683740943,66.12866246946176,0.32083333333333336,77,0.2823388916666667,0.0013881358470735458,3.198180121034118e-07,35.39133333333333,0.014544949486180491,2.0833338984732843e-06,76.03433333333332,0.2540299632370603,0.7800000000000011,-0.0004548265122684765
S091,12389.0,12418.984375,N1,0.7166927083333332,67.98856522384656,-131.45,124.37,255.82,6.895,29.677699518150142,796.875,799.5524088541666,0.43844020995836286,0.6653624938812595,0.27688746209726917,64.25862484124413,0.26608303010746587,65.88626564011653,0.18645833333333334,72,0.2830758,0.0013858356540369572,-5.342397282551404e-07,35.399999999999984,0.012382783747336493,4.3750011867945e-06,75.65499999999999,0.1459166428707377,0.539999999999992,-9.163196930120789e-05
S091,12419.0,12448.984375,N2,-0.18769791666666666,65.11265764932918,-132.02,115.13,247.15,7.875,26.666761984257416,796.875,793.3349609375,0.0910728874766433,0.5045356346158537,0.08533405557962581,64.35075992985678,0.2551727191651534,65.49045732013177,0.42604166666666665,136,0.282851525,0.0014797595861180872,-6.424196621147123e-07,35.41466666666667,0.016069294390925234,1.034722502908701e-05,75.49199999999999,0.12275721295847848,0.37000000000000455,0.0001270833678069042
S091,12449.0,12478.984375,N2,-0.19110937500000003,65.33720438894701,-120.94,114.49,235.43,7.17,28.591756930718827,796.875,798.8606770833334,0.3209128013053806,0.5641949771331026,0.184557348622469,64.37382353329762,0.27840684353068795,65.49045732013177,0.027083333333333334,13,0.28315053333333334,0.001299842092546471,2.8421014654135575e-08,35.43733333333333,0.012092238098145955,1.3958337119776125e-05,74.95966666666666,0.1914241944536329,0.5799999999999983,-0.00031746536389577003
S091,12479.0,12508.984375,N2,0.3941354166666667,64.50354201823593,-119.43,109.19,228.62,7.33,20.186694905669913,781.25,792.431640625,0.11580316603568697,0.47495887979908324,0.05589199343873463,64.30576680011974,0.24499574544559044,65.62011886609167,0.3333333333333333,106,0.2838232833333334,0.001493500179574449,1.4265889286536683e-07,35.44266666666666,0.013148721948878419,-2.5694451414502663e-06,75.13666666666667,0.0881034745184454,0.3999999999999915,8.777780158902723e-05
S091,12509.0,12538.984375,N2,0.008244791666666747,65.53589817398803,-125.26,134.63,259.89,8.09,24.664406578379435,781.25,793.45703125,0.1592592172022985,0.4714045207910316,0.04559597630883185,64.29969998975596,0.23637447841450826,64.99230723708769,0.309375,111,0.28481648333333337,0.0013736066515038256,2.581428651646208e-07,35.44933333333333,0.012092238098144569,1.0069447175956383e-05,75.492,0.21933839913096256,0.6800000000000068,0.0003389584252816916
S091,12539.0,12568.984375,N2,-0.6795364583333334,64.08571434548067,-114.74,104.52,219.26,5.9350000000000005,19.44928922544873,781.25,780.5257161458334,0.15612494995995996,0.46517619123176207,0.03225804701500421,64.29051259020558,0.23226971811014197,64.99230723708769,0.29270833333333335,107,0.28497667500000007,0.001552011539704197,-4.1013791507647347e-07,35.45933333333333,0.012364824660659654,8.055557740763794e-06,75.92433333333335,0.16714630982731543,0.5799999999999983,0.000224548672023837
S091,12569.0,12598.984375,N2,0.6544218750000002,61.967910650553144,-110.72,101.78,212.5,8.29,11.993134689339952,781.25,778.9713541666666,0.26170307270624255,0.48789046862487484,0.03225804701500421,64.32215815672615,0.23842202312019364,64.99230723708769,0.31875,132,0.28542524166666666,0.00152531530071563,5.33661820112253e-07,35.47400000000001,0.013063945294843917,-3.7500010172532195e-06,76.99133333333333,0.3027070457646402,0.9000000000000057,0.0004792362411122628
S091,12599.0,12628.984375,N2,-0.12881250000000008,60.61595989683611,-112.17,100.53,212.7,5.3149999999999995,9.312385279598132,765.625,765.6412760416666,0.2565462379810357,0.4807221130757352,0.06441510347391795,64.31099895202655,0.24065284631650885,65.49045732013177,0.30104166666666665,121,0.2856494916666667,0.0015519738882888907,-5.5649103637453836e-08,35.47400000000001,0.013063945294843917,2.777778531298667e-06,77.59566666666666,0.2247618492735988,0.6399999999999864,0.0003854514934492933
S091,12629.0,12658.984375,N2,-0.48663541666666693,61.33117535944705,-117.33,104.33,221.66,4.57,13.701138135717894,765.625,764.8518880208334,0.3054766312211496,0.48246599621113195,0.08507936450096985,64.31297107683733,0.2395334421038323,64.99230723708769,0.2833333333333333,130,0.28633305833333333,0.0016057697442651013,6.714760936078806e-07,35.47733333333334,0.013148721948877925,3.5416676274054826e-06,78.025,0.18897530702889787,0.6000000000000085,0.0003199653645739364
S091,12659.0,12688.984375,N2,0.5768124999999998,60.065976015841755,-106.59,102.17,208.76,5.795,10.913565348033037,765.625,759.6761067708334,0.3210226714043037,0.4671953385630041,0.11110243021644486,64.2923238296587,0.2376375018846933,64.99230723708769,0.24166666666666667,127,0.28620485833333337,0.0015271166911090585,-1.0454191203936514e-07,35.483333333333334,0.011925695879999417,5.416668136031748e-06,78.69833333333332,0.13178475716949095,0.3999999999999915,0.0002336458967138354
S091,12689.0,12718.984375,N2,0.0015781249999999858,58.53631946153833,-116.41,99.17,215.57999999999998,5.465,26.92189149959996,765.625,767.6432291666666,0.33767356648100244,0.4679843283671177,0.07198059875565237,64.28541459523927,0.22833524665543578,64.99230723708769,0.32916666666666666,91,0.286418475,0.0014908027757022907,6.546857244698654e-07,35.48600000000001,0.01227463509301506,-3.6805565539705255e-06,79.01333333333334,0.10783732604663875,0.3300000000000125,-2.625000712077209e-05
S091,12719.0,12748.984375,N3,-0.6593645833333331,57.32463641686193,-104.4,98.04,202.44,3.35,13.061094980154635,765.625,759.3424479166666,0.3487079325484613,0.4348019484489461,0.09636964965693294,64.2520088223527,0.21934514426243878,64.99230723708769,0.2625,90,0.28718750000000004,0.0014723949707873864,9.517233484492705e-08,35.492000000000004,0.007483314773547786,-2.3611117516036394e-06,78.72066666666666,0.05709251750934989,0.1700000000000017,-8.430557842490431e-05
S091,12749.0,12778.984375,N3,0.6164947916666671,58.92816375199778,-132.94,122.67,255.61,4.71,28.25177548323321,765.625,762.8173828125,0.35293904887702954,0.44858961076789206,0.1356408400888169,64.27272530524837,0.237413498815698,65.49045732013177,0.2947916666666667,94,0.2869418166666667,0.0013216288812379269,-3.1193367836742856e-07,35.49266666666667,0.0044221663871396545,-1.3194448023664914e-06,78.79766666666666,0.07548436188303452,0.2600000000000051,0.00012128475512281794
S091,12779.0,12808.984375,N3,-0.42973437499999995,57.616184835352705,-103.06,95.52,198.57999999999998,3.89,13.012855628996034,765.625,759.5703125,0.3886352099191334,0.43539174569831046,0.11987768650679834,64.25191184736993,0.2239582352589525,64.99230723708769,0.26875,99,0.287999225,0.001479852765550791,-1.9969840486608727e-08,35.49266666666667,0.006289320754704005,-1.3888892656493084e-06,79.05433333333332,0.048695197116576196,0.18000000000000682,2.5798618109433695e-05
S091,12809.0,12838.984375,N3,0.40391666666666654,58.55880951261494,-105.4,98.5,203.9,4.245,11.344284283234636,750.0,753.564453125,0.41962362227953753,0.43597825625890513,0.13928372696486202,64.25195111001591,0.22432169487807485,64.99230723708769,0.275,99,0.2883730083333333,0.001554758483365569,7.384761117827973e-07,35.49566666666667,0.004955356249105183,1.0763891808779273e-06,79.10133333333333,0.15624197757182753,0.4099999999999966,0.00025847229233731873
S091,12839.0,12868.984375,N3,-0.18009374999999983,57.73768611855297,-103.28,96.23,199.51,3.16,12.676390541975348,765.625,757.9996744791666,0.4061164310337068,0.4112552241309525,0.17677362623014653,64.24499929645214,0.2346601774179239,65.49045732013177,0.24583333333333332,99,0.28838367500000006,0.0016040308037487867,-8.126232673131636e-07,35.49666666666667,0.007888106377465585,4.65277903992461e-06,79.49000000000001,0.08793937305515286,0.25,0.00015555559775271238
S091,12869.0,12898.984375,N3,-0.29324479166666684,59.14539705025019,-104.66,99.88,204.54,2.885,13.958269185540372,750.0,756.396484375,0.43240962246141357,0.41197356981027583,0.1529193630552463,64.23360920204286,0.22755705343872606,65.49045732013177,0.2375,92,0.2894837416666667,0.0014720222739247283,8.684848276054691e-07,35.498666666666665,0.008459051693633009,3.611112090688128e-06,79.32633333333334,0.11426528587263765,0.37000000000000455,-0.00017038199066351725
S091,12899.0,12928.984375,N3,0.5376666666666667,57.95341476289862,-104.05,100.25,204.3,3.58,12.4712905738788,750.0,755.9651692708334,0.4422166387140533,0.4162028668676957,0.18483053424390922,64.2445486119583,0.24250150321763755,65.49045732013177,0.25416666666666665,100,0.28994296666666663,0.0015602162720454893,2.4971360940580068e-08,35.51033333333333,0.015807874268505936,1.1562503136529978e-05,79.27566666666665,0.05806222715519965,0.21999999999999886,2.947917466340535e-05
S091,12929.0,12958.984375,N3,-0.22636979166666674,55.69307323774957,-102.79,93.22,196.01,2.41,29.855929647186635,765.625,766.2353515625,0.451116237099708,0.3952352938440594,0.19249988726547926,64.23045732570533,0.23367013234118364,64.99230723708769,0.23229166666666667,98,0.2900604,0.0016341958287386005,6.16583500592309e-07,35.516666666666666,0.017191729277636816,7.013890791528348e-06,79.31366666666666,0.19846886125760085,0.5499999999999972,-0.0003313542565522621
S091,12959.0,12988.984375,N3,0.10417187499999997,56.321828812393356,-100.07,96.46,196.52999999999997,3.2649999999999997,12.259908803372804,750.0,751.1800130208334,0.45825756949558405,0.39361218928731817,0.20684625513624577,64.23295086754612,0.2413113771472204,65.49045732013177,0.23541666666666666,100,0.29017787500000003,0.0015179335600441473,-3.9772037698577745e-07,35.525666666666666,0.015638272140986145,9.687502627903148e-06,79.18833333333333,0.08714292219617673,0.28000000000000114,7.927085483693086e-05
S091,12989.0,13018.984375,N3,0.1269375000000001,55.8002525615574,-97.42,94.69,192.11,2.77,12.693810007243687,750.0,753.125,0.46351240544347894,0.3852251776558744,0.21358993356949718,64.22890931467148,0.2443527116858363,65.49045732013177,0.228125,111,0.29125650833333333,0.0015807909728773558,3.8019780278803186e-07,35.53166666666666,0.013437096247163252,4.5138901133632436e-07,79.46533333333333,0.22355809585479547,0.6299999999999955,0.00039979177511712514
S091,13019.0,13048.984375,N2,-0.3846354166666666,53.95171769037645,-96.96,90.67,187.63,2.1100000000000003,13.224872282581703,765.625,758.3821614583334,0.4813131271728301,0.40232478717449166,0.1874276480775686,64.22402882851267,0.23531050629948522,65.49045732013177,0.2375,103,0.2919613,0.001491719972604326,3.8851269219636675e-07,35.527333333333324,0.015477582354991297,-6.8750018649625405e-06,79.59566666666666,0.11783274398720986,0.3199999999999932,-0.00019857644275619407
S091,13049.0,13078.984375,N3,0.2648333333333333,57.22798374769452,-103.63,99.52,203.14999999999998,3.16,14.788250595853583,750.0,757.6822916666666,0.48693766534388727,0.3763632627602694,0.2221950938302244,64.21858719308916,0.24819466205484603,65.37583651472461,0.221875,103,0.29244191666666663,0.0015070487471840054,1.1084408388782628e-06,35.535333333333334,0.008844332774279307,2.2222228250383018e-06,79.64899999999999,0.11148542505637196,0.3399999999999892,2.475695116019722e-05
S091,13079.0,13108.984375,N3,-0.010624999999999744,54.40726695608049,-99.49,93.43,192.92000000000002,2.615,12.055699879846438,750.0,749.9918619791666,0.4975973086716027,0.40155405579102577,0.20684625513624577,64.22054819560023,0.25071123480371,65.49045732013177,0.24375,110,0.29244188333333326,0.0014703341637381457,-4.6273710469214e-07,35.534666666666666,0.014079141387960877,4.236112260229829e-06,79.70700000000001,0.19689506511506888,0.5300000000000011,0.0003495487059322683
S091,13109.0,13138.984375,N3,-0.32524479166666664,54.80124358232433,-112.42,99.3,211.72,1.61,31.777443745294317,750.0,760.5875651041666,0.48765577995367,0.3640755392276291,0.2343726851737539,64.21672102565407,0.26067037931960335,65.49045732013177,0.209375,95,0.292196275,0.0012369279281247499,-2.088770097865127e-07,35.538999999999994,0.014224392195566763,1.0069447175949137e-06,79.58800000000001,0.16203703280423187,0.5699999999999932,-0.00013638892588675128
S091,13139.0,13168.984375,N3,-0.1300572916666666,55.563791154353694,-99.57,97.4,196.97,1.8250000000000002,30.114244404392736,750.0,753.5319010416666,0.4941838371806139,0.34327460814517324,0.24016912082368588,64.2048759415789,0.2572877632763122,65.37583651472461,0.196875,115,0.29238850833333335,0.0015808255385284873,7.244674274271449e-07,35.54466666666667,0.011469767022722266,9.722224859547007e-07,79.42600000000002,0.08998518396565805,0.3200000000000074,-0.00010590280650575158
S091,13169.0,13198.984375,N3,0.1822812499999999,53.46791430190538,-95.69,91.36,187.05,1.38,10.799003394968642,750.0,747.55859375,0.49881695979086355,0.37080407187923675,0.28408104465197176,64.23749405428701,0.2932989807492016,65.37583651472461,0.09166666666666666,69,0.29308262500000004,0.0014420963679224125,-5.9507177600684265e-08,35.55,0.014605934866804117,2.916667457862919e-06,79.69100000000002,0.12340583454602252,0.46000000000000796,0.0002178125590854396
S091,13199.0,13228.984375,N3,-0.13811458333333337,55.33707150921557,-106.57,109.89,216.45999999999998,0.745,30.177992349140215,750.0,751.3753255208334,0.498430697010349,0.3410547747430022,0.2748085665766061,64.21745120177782,0.2854139928009489,65.37583651472461,0.209375,120,0.29391561666666666,0.0014128975439578972,7.63640398122943e-07,35.555333333333344,0.015434449203721159,8.472224520460349e-06,80.28766666666667,0.11723717650794853,0.4300000000000068,0.00014177087179114458
S091,13229.0,13258.984375,N3,0.5091145833333333,55.37446931976147,-98.1,97.76,195.86,1.58,10.083526688290325,750.0,744.8649088541666,0.4976986970603354,0.3108009366495253,0.2810396589995006,64.20886190021128,0.2816827049461083,65.37583651472461,0.19270833333333334,128,0.29409718333333335,0.0013538376009412133,-3.7123707987117357e-07,35.562000000000005,0.011075498483892499,2.5000006781689775e-06,80.316,0.09840731680114057,0.28000000000000114,0.00015159726334561133
S091,13259.0,13288.984375,N3,-0.14234895833333355,53.22741841571076,-93.83,92.55,186.38,0.8400000000000001,29.63454559780169,750.0,750.7568359375,0.49989148127924293,0.3487079325484613,0.2900232719350102,64.2242788437773,0.2910589804074337,65.37583651472461,0.23125,139,0.2944495916666667,0.0014967348824237124,-6.790624671935977e-07,35.565333333333335,0.009910712498213887,-4.6527790399255966e-06,80.264,0.06374950980203332,0.19999999999998863,-8.402780057177248e-05
S091,13289.0,13318.984375,N3,-0.049677083333333066,55.12371234796079,-105.12,96.14,201.26,1.475,12.52705507151016,750.0,741.69921875,0.4992083576774331,0.3,0.30815732589052625,64.21937220461608,0.2964095899025896,65.37583651472461,0.20520833333333333,128,0.2955495083333333,0.0017856771591184238,1.3046225327209616e-06,35.57066666666667,0.017499206331210302,1.2013892147866206e-05,80.36733333333335,0.07266055020129995,0.29999999999999716,0.00011965281023568227
S091,13319.0,13348.984375,N3,-0.20857291666666686,53.84817111511402,-102.07,106.27,208.33999999999997,0.5449999999999999,29.94800401757811,750.0,746.8180338541666,0.49986868935473666,0.3081573258905262,0.3013838885273878,64.21341337475572,0.2958762625566619,65.37583651472461,0.203125,129,0.2953038999999999,0.001385964353798474,6.563283030404774e-08,35.562000000000005,0.013266499161423103,-2.222222825039017e-06,80.61233333333332,0.044697750378392916,0.15000000000000568,7.225696404540578e-05
S091,13349.0,13378.984375,N3,0.2211822916666667,53.95162708204548,-97.12,93.6,190.72,0.885,11.484889842839088,750.0,743.45703125,0.4995212551783957,0.3159806164941134,0.3283415290855274,64.23416491073051,0.3165173314021347,65.37583651472461,0.12395833333333334,93,0.29589127499999995,0.0013044076239331806,3.137696163654153e-08,35.562000000000005,0.012220201853217484,1.1388891978325342e-05,80.53400000000002,0.07026616065598652,0.21999999999999886,-0.000123333366789645
S091,13379.0,13408.984375,N3,-0.03738020833333338,53.085593322455274,-92.85,94.46,187.31,0.405,10.87101910491975,734.375,740.3483072916666,0.498430697010349,0.2914805954090255,0.3318963165365888,64.22531206465152,0.31609365404765344,65.37583651472461,0.12604166666666666,95,0.2964893166666666,0.0015808056700268023,4.4694716985329444e-07,35.57600000000001,0.010519822558707979,3.6805565539709948e-06,80.48333333333336,0.09001234483237151,0.29999999999999716,0.0001279167013662876
S091,13409.0,13438.984375,N3,-0.321828125,54.02623282510583,-94.95,92.7,187.65,0.925,10.575720504532807,750.0,745.3450520833334,0.4993746088859544,0.24206145913796356,0.31725377318043396,64.20047357110279,0.2996969237975014,64.99230723708769,0.17604166666666668,124,0.2965427166666667,0.0014516323753125482,6.707627687615997e-07,35.57533333333334,0.011469767022725296,-5.1388902829028975e-06,80.82966666666667,0.0356355004018301,0.10999999999999943,-1.8090282685079668e-05
S091,13439.0,13468.984375,N3,-0.005270833333333395,54.29510906101472,-104.57,94.73,199.3,0.62,29.06155378471688,750.0,751.5543619791666,0.498956158659144,0.28103965899950056,0.33767356648100244,64.22695082789483,0.32086448517877486,65.37583651472461,0.13125,95,0.29742915,0.00157456069878765,1.1762459787993506e-07,35.573333333333345,0.01468181036369853,7.152779718093858e-06,80.66499999999999,0.14101418368376836,0.4299999999999926,-0.00024225701016086096
S091,13469.0,13498.984375,N3,0.3408958333333331,53.38075753909345,-92.03,93.76,185.79000000000002,1.53,11.119240859577342,750.0,745.41015625,0.49495720914932534,0.2957874817753449,0.33653249956562725,64.22680761849273,0.32354773546831894,65.37583651472461,0.13333333333333333,98,0.2973970583333333,0.0014102800034971328,5.190007918296398e-07,35.58066666666668,0.01236482466066231,6.9444463282468875e-06,80.38166666666666,0.03777859476241132,0.13000000000000966,3.854167712174987e-06
S091,13499.0,13528.984375,N3,0.12776041666666665,51.9879777968035,-90.67,90.53,181.2,0.61,30.287920587718922,750.0,748.4212239583334,0.4985123267588833,0.2617030727062426,0.3476343040826092,64.22797189024502,0.32583513095653305,65.37583651472461,0.14270833333333333,95,0.29873215833333333,0.0016278810869544095,1.4081993837346362e-06,35.588666666666676,0.013597385369580654,3.1944453109930035e-06,80.40066666666668,0.04016078795154738,0.13000000000000966,6.145835000498298e-05
S091,13529.0,13558.984375,N3,-0.017317708333333216,52.76427921507657,-93.75,92.66,186.41,0.7250000000000001,9.848279634084957,750.0,742.8304036458334,0.4988169597908636,0.22838645595544604,0.3745309566644658,64.24316750051054,0.34582678903570035,65.37583651472461,0.171875,120,0.298219475,0.001560905719779916,3.396444063705536e-07,35.58800000000001,0.01661324772583658,-2.986111921145785e-06,80.54433333333333,0.06931490139613122,0.23000000000000398,0.00012031253263686109
S091,13559.0,13588.984375,N3,-0.42569791666666684,52.915398225929906,-93.7,93.96,187.66,-0.05,12.151236966260457,750.0,745.3531901041666,0.4983468765578851,0.2343726851737539,0.35910164724706506,64.22969366984523,0.33165154079526393,65.37583651472461,0.153125,108,0.299138,0.0013634348046997545,-4.2588553219551884e-08,35.58333333333335,0.014907119849999657,1.5277781922143085e-05,80.74866666666667,0.060317677526757,0.14999999999999147,9.673613735246293e-05
S091,13589.0,13618.984375,N3,0.576234375,52.96464926542657,-91.96,92.67,184.63,0.995,12.712786785313826,734.375,739.2252604166666,0.496706819895354,0.23040385738958447,0.3790736493047521,64.24548426639895,0.3521382908553374,65.49045732013177,0.175,121,0.29934093333333334,0.001560420251798282,6.313838518293851e-07,35.58600000000001,0.010832051206182448,8.333335593903251e-07,80.83,0.0,0.0,0.0
S091,13619.0,13648.984375,N3,-0.5821718750000001,53.78662395213494,-93.6,93.3,186.89999999999998,-0.37,13.889291545541273,750.0,740.72265625,0.49567465072868105,0.22428271082497642,0.38522517765587433,64.24918748496412,0.3597325700172601,65.49045732013177,0.18125,127,0.299821575,0.001428093879164923,-7.813088056935676e-08,35.59266666666667,0.009977753031396268,-2.361111751603097e-06,80.86733333333335,0.05773117778886083,0.1700000000000017,8.597224554368874e-05
S091,13649.0,13678.984375,N3,0.5240364583333333,52.263022306733156,-92.58,92.1,184.68,0.98,9.842144736000774,750.0,741.6585286458334,0.4983468765578851,0.1899835519196333,0.4061164310337068,64.26753955431856,0.36943826832385007,65.37583651472461,0.20833333333333334,130,0.29985358333333334,0.0016523752831572123,-4.806594185816553e-07,35.59466666666669,0.01334998959633314,4.236112260229854e-06,81.0,0.0,0.0,0.0
S091,13679.0,13708.984375,N3,0.046781250000000024,51.347520315554824,-89.75,89.46,179.20999999999998,0.45000000000000007,29.8139578113853,750.0,748.3805338541666,0.4955356249106168,0.194978186101819,0.3717436742904982,64.2288210335235,0.34035321399746205,65.37583651472461,0.165625,120,0.29961862499999997,0.0015217236995290295,-1.2515823707634414e-07,35.60266666666668,0.013148721948876303,7.986113277482505e-06,80.758,0.14954152154724912,0.37999999999999545,-0.0002533334020544146
S091,13709.0,13738.984375,N3,-0.5362135416666666,52.69480272034093,-93.4,91.86,185.26,-0.825,11.394112688956588,734.375,740.2669270833334,0.49152540343528767,0.17116012950028855,0.3852251776558744,64.23459162153631,0.35288933268863143,65.37583651472461,0.18125,116,0.3002487916666666,0.001345824263514324,5.198849066528059e-07,35.60533333333334,0.0123107902084119,-2.083333898479082e-07,80.61999999999998,2.842170943040401e-14,0.0,0.0
S091,13739.0,13768.984375,N3,0.5046614583333334,51.88492182213977,-91.12,90.98,182.10000000000002,0.925,13.000788200154508,750.0,741.259765625,0.4911323014219285,0.21578094200034337,0.41758232721225164,64.28146537415513,0.37980392041681227,65.37583651472461,0.225,139,0.30048373333333334,0.0014844744621881757,-1.1930949417032532e-07,35.594666666666676,0.01117536974282563,-3.5416676274044475e-06,80.99733333333333,0.1977360755035753,0.5499999999999972,0.0003315278677104682
S091,13769.0,13798.984375,N3,-0.5623697916666669,51.34521931817999,-89.52,88.98,178.5,-0.53,14.348969318180298,750.0,742.5048828125,0.4913299959605107,0.194978186101819,0.3968408231128558,64.25175492941784,0.3630153670276758,65.37583651472461,0.19583333333333333,137,0.3005264333333333,0.001446144833302968,2.901198703667178e-07,35.60133333333335,0.011175369742825191,-6.944446328301418e-08,81.17,0.0,0.0,0.0
S091,13799.0,13828.984375,N3,0.5267135416666667,51.85849002213885,-91.5,93.15,184.65,0.675,12.858935620946623,734.375,738.1591796875,0.47729594061814057,0.18998355191963326,0.3952352938440594,64.24233944892917,0.3622114417855892,65.37583651472461,0.19375,117,0.3004517166666666,0.0014587477745389044,-3.460170209464553e-07,35.59800000000002,0.014236104336040915,-6.944446328244939e-06,81.19200000000001,0.0388501394248886,0.10999999999999943,5.3680570117341684e-05
S091,13829.0,13858.984375,N3,-0.27071874999999995,51.5518378986957,-90.16,88.93,179.09,-0.685,14.305659214537194,750.0,740.1529947916666,0.49052546761101,0.1529193630552463,0.4162028668676957,64.2666964393261,0.37369164049824605,65.37583651472461,0.22291666666666668,148,0.30027018333333333,0.0013441385344235197,7.406694717527833e-07,35.60266666666668,0.013148721948876303,2.013889435192071e-06,81.27999999999999,1.4210854715202004e-14,0.0,0.0
S091,13859.0,13888.984375,N3,0.3065625,51.61657243919915,-90.09,88.01,178.10000000000002,0.28500000000000003,28.023524952770256,734.375,745.0846354166666,0.49633640445658317,0.16232629604869597,0.42163187438807326,64.27966117776971,0.3848058442835905,65.37583651472461,0.23125,144,0.300622625,0.0012149989990565093,1.312519887293787e-07,35.60933333333334,0.013148721948876965,-3.125000847710012e-06,81.00399999999999,0.13551383693187907,0.45000000000000284,-0.0002315278405837236
S091,13889.0,13918.984375,N3,-0.22095833333333323,51.90217434047534,-91.0,89.34,180.34,-0.745,10.07206579412918,750.0,743.4326171875,0.4986690184185856,0.14627537173085559,0.4496092053105675,64.32285678457693,0.4047778042423339,65.37583651472461,0.28125,155,0.301541075,0.0014287838661048997,1.1513175866204312e-07,35.60933333333334,0.014126413400277633,3.402778700840862e-06,80.83,0.0,0.0,0.0
S091,13919.0,13948.984375,N3,0.022838541666666767,53.68977357249328,-98.2,95.61,193.81,0.175,13.53955130071686,750.0,740.5029296875,0.4972799275950005,0.13188915142607024,0.44807531105272913,64.31622266592618,0.4064094655314347,65.37583651472461,0.278125,146,0.30196819166666666,0.0013700792817439066,-4.1433973913295945e-07,35.60600000000001,0.011999999999999036,1.250000339084612e-06,81.03066666666668,0.12279884183312098,0.3200000000000074,0.0001957639419932577
S091,13949.0,13978.984375,N3,-0.38715104166666675,52.33055254081679,-91.04,91.76,182.8,-0.88,15.21996145019907,734.375,736.8001302083334,0.4941838371806139,0.13188915142607024,0.4454583703582437,64.30896204936279,0.4019537290345526,65.37583651472461,0.27291666666666664,151,0.3019788916666667,0.0014950704821503342,1.5216779301426902e-07,35.59666666666667,0.0165998661306511,-1.4583337289315703e-05,81.22833333333334,0.13005340783266478,0.3200000000000074,0.00022295144936834485
S091,13979.0,14008.984375,N3,0.5269583333333333,51.4559314012803,-89.2,91.02,180.22,0.77,16.44701661185405,734.375,741.1376953125,0.49480701730573706,0.12801909579781012,0.4427647022936925,64.30444784428705,0.3985232423606027,65.37583651472461,0.2677083333333333,157,0.30201087499999996,0.001541856303088915,1.1576023105475107e-07,35.60200000000001,0.013266499161420604,8.61111344702428e-06,81.34033333333333,0.0619399350625737,0.15000000000000568,-9.406252551609762e-05
S091,14009.0,14038.984375,N3,-0.4431041666666666,51.74781825462934,-90.78,90.04,180.82,-0.865,10.415840116132864,734.375,741.1295572916666,0.4955356249106168,0.11987768650679834,0.45825756949558394,64.33176472725194,0.4146851144817333,65.37583651472461,0.3,181,0.3018827666666667,0.001651536545833074,2.7856778389964176e-08,35.61000000000001,0.012649110640673623,-1.5277781922140297e-06,81.19166666666663,0.12822072981992852,0.3199999999999932,-0.000219132003887801
S091,14039.0,14068.984375,N3,0.5237760416666666,51.414562861421786,-93.23,91.44,184.67000000000002,0.385,13.353805322861506,750.0,740.1204427083334,0.4813131271728301,0.13928372696486202,0.4491009054365053,64.30936817275268,0.40434954516971644,65.37583651472461,0.28020833333333334,160,0.302181775,0.001438311732915256,-3.833486282955559e-08,35.60400000000001,0.01280624847486474,2.013889435191035e-06,81.09666666666666,0.010749676997730875,0.04999999999999716,9.583335932979055e-06
S091,14069.0,14098.984375,N3,-0.49051562499999996,50.77485836590665,-87.34,87.88,175.22,-1.1150000000000002,15.244211786899486,734.375,738.9892578125,0.48765577995367,0.1356408400888169,0.44439018766044874,64.3037005777755,0.3988633898922941,65.37583651472461,0.2708333333333333,149,0.3038691333333334,0.0015288985628731523,4.733482186817048e-07,35.60866666666667,0.010241527663824253,-7.361113107939891e-06,81.19766666666668,0.03800730923856037,0.12000000000000455,4.510417890195872e-05
S091,14099.0,14128.984375,N3,0.4380625000000002,54.0236244522193,-111.54,101.78,213.32,0.24,28.045795907525637,750.0,743.0745442708334,0.48619840486049404,0.12401959270615269,0.45547880027505117,64.32108539313569,0.4121272242257065,65.37583651472461,0.29375,170,0.30426426666666667,0.0015598278309551501,1.2551301147813947e-06,35.60533333333334,0.01606929439092493,3.1250008477106292e-06,81.26666666666667,0.0932499627643652,0.27000000000001023,5.6111126332228565e-05
S091,14129.0,14158.984375,N3,-0.45689062499999983,50.16697336736794,-88.06,88.9,176.96,-1.31,15.950886209675732,750.0,741.11328125,0.49152540343528767,0.1015291077584267,0.4647643051859727,64.34020932668197,0.417039724823838,65.37583651472461,0.315625,164,0.3044458,0.001476540447577837,-8.660484120140088e-07,35.60933333333334,0.014126413400277989,4.513890113360111e-06,81.021,0.041340053217188207,0.15000000000000568,-5.357640342241715e-05
S091,14159.0,14188.984375,N3,-0.008677083333333375,49.81430075498626,-89.05,88.63,177.68,0.24,14.642357588800172,750.0,747.6643880208334,0.48302792074808903,0.139283726964862,0.47495887979908324,64.36478199086564,0.42432016411520335,65.37583651472461,0.34375,171,0.3045739416666667,0.0015149410620869854,-3.116862824669496e-08,35.61333333333334,0.013743685418725443,9.93055824939218e-06,80.77266666666668,0.1348315821888756,0.37000000000000455,-0.00021500005832249624
S091,14189.0,14218.984375,N3,0.28582291666666665,51.45640513610664,-91.08,90.82,181.89999999999998,-0.275,13.27661171496569,750.0,747.021484375,0.4928294424798503,0.10152910775842672,0.48594726901577384,64.39841251351939,0.4362328184867937,65.37583651472461,0.38229166666666664,186,0.30505445833333333,0.00169256139669946,6.622152404012718e-07,35.607333333333344,0.009977753031396266,-5.2777792094671005e-06,80.617,0.07878874708146572,0.21000000000000796,-0.00012829864591435236
S091,14219.0,14248.984375,N3,0.1957187500000001,50.95826742606867,-88.97,89.7,178.67000000000002,0.395,12.60955012505935,750.0,746.6064453125,0.48924966466518915,0.06441510347391795,0.4883528419738016,64.4020752080542,0.4327727226456763,64.99230723708769,0.3927083333333333,182,0.30551371666666666,0.0014516029483719775,3.131502585585571e-07,35.614000000000004,0.0130639452948437,8.750002373590088e-06,80.48833333333333,0.02450623503428242,0.09999999999999432,3.0451397149359908e-05
S091,14249.0,14278.984375,N3,-0.37485937499999994,51.152568367631595,-90.39,89.91,180.3,-0.4,13.860057735148553,750.0,740.9912109375,0.4851796631718559,0.09090593428863097,0.4835802171190307,64.38504325415144,0.43488139499965267,65.37583651472461,0.3729166666666667,180,0.3061972583333334,0.0013459846240815216,3.387455345989397e-07,35.616,0.011718930554165088,1.319444802367059e-06,80.54966666666665,0.06968899163824555,0.21999999999999886,5.4201403591962535e-05
S091,14279.0,14308.984375,N3,0.38419791666666653,50.39342865851488,-88.35,89.53,177.88,0.22999999999999998,13.229288416024412,734.375,740.6901041666666,0.45960878404899963,0.07880950133074055,0.48465605645194976,64.3787406585834,0.43258087667323003,65.37583651472461,0.3770833333333333,172,0.30591955833333334,0.0014705475045927207,-4.978176263611176e-07,35.614000000000004,0.0130639452948437,-9.722224859544937e-06,80.72599999999998,0.06696267617113093,0.1599999999999966,0.00010958336305972035
S091,14309.0,14338.984375,N3,-0.16149999999999995,50.91112760589935,-104.76,111.64,216.4,-0.95,27.127175425045113,734.375,742.7815755208334,0.47285700798444347,0.06441510347391795,0.486447180457447,64.38796649698382,0.43442918482060555,64.99230723708769,0.384375,193,0.30647488333333334,0.0016606222838810192,1.3234235360849412e-06,35.60533333333334,0.01431394036905512,-5.625001525878324e-06,80.89266666666666,0.07220033856492057,0.20000000000000284,-5.395834797047429e-05
S091,14339.0,14368.984375,N3,0.07489062499999997,51.13994343433715,-91.08,92.71,183.79,-0.7050000000000001,11.790135853748364,734.375,741.1295572916666,0.4851796631718559,0.07880950133074055,0.4959460218584501,64.43865420293946,0.4477382203870349,65.37583651472461,0.23958333333333334,130,0.3062826583333333,0.0016056808394770983,-6.880954557550608e-07,35.603333333333346,0.01074967699772985,4.30555672351203e-06,80.79999999999998,1.4210854715202004e-14,0.0,0.0
S091,14369.0,14398.984375,N3,0.051718750000000056,50.981431314949354,-118.99,122.4,241.39,0.405,25.55734526775848,750.0,745.703125,0.487418752132656,0.05581428468591172,0.49171852657287596,64.41488890903787,0.44041098568562265,64.99230723708769,0.409375,189,0.3066992,0.0017415883296577285,9.531387134165357e-07,35.60466666666668,0.012578641509408085,-5.277779209466632e-06,80.80133333333333,0.0183908189655118,0.060000000000002274,1.5069448532294338e-05
S091,14399.0,14428.984375,N3,-0.5345572916666668,51.40546604176132,-89.9,89.67,179.57,-1.5950000000000002,11.960064128071572,750.0,740.7145182291666,0.4833052703778431,0.03225804701500421,0.486447180457447,64.39039533006618,0.43410548387064146,64.99230723708769,0.384375,184,0.3069875166666666,0.0015104885301524833,-1.0881183507265466e-06,35.60266666666668,0.015040685563570546,-6.1805572321371105e-06,80.83,0.0,0.0,0.0
S091,14429.0,14458.984375,N3,0.5895156250000001,52.44429281215892,-91.88,91.56,183.44,0.5800000000000001,13.270624435593193,734.375,739.794921875,0.4675911601554883,0.06441510347391795,0.49132999596051086,64.40598847713672,0.4388697030643457,64.99230723708769,0.40729166666666666,184,0.30618653333333334,0.0013379077941157013,3.234315113475216e-07,35.600000000000016,0.011254628677421148,1.5972226554964024e-06,80.90133333333334,0.0736085743797717,0.1700000000000017,0.00012430558927560654
S091,14459.0,14488.984375,N3,-0.18778645833333327,52.211303266612205,-91.23,91.69,182.92000000000002,-1.55,12.379895818433223,734.375,737.6953125,0.47426844250440653,0.05581428468591173,0.49228421668788036,64.41211591799085,0.44152912396881816,64.99230723708769,0.4125,181,0.307051625,0.001509145636127162,4.806361980892451e-07,35.603333333333346,0.013984117975601158,-3.888889943817176e-06,81.17366666666668,0.0835257777907859,0.28000000000000114,0.00014607642851465787
S091,14489.0,14518.984375,N3,0.1698645833333332,51.01756118997976,-91.57,90.66,182.23,-0.19,12.847764917315333,750.0,743.4163411458334,0.4699106002445808,0.07198059875565237,0.4956746507286812,64.4305324146092,0.44515102680037894,65.37583651472461,0.434375,186,0.3072225333333333,0.0014328373071946722,-5.307497099472954e-07,35.59666666666668,0.01299572579307749,-1.388889265649408e-06,81.241,0.02748939189335973,0.060000000000002274,-4.2465289297226285e-05
S091,14519.0,14548.984375,N3,-0.3154687499999999,51.17786570800024,-90.3,91.64,181.94,-1.4049999999999998,12.090916391726683,750.0,745.6136067708334,0.46991060024458076,0.06441510347391795,0.4963364044565831,64.43448984284615,0.44564787163372294,65.37583651472461,0.21041666666666667,120,0.30809834999999997,0.0014762603578524537,1.175960822472007e-06,35.598000000000006,0.01423610433604078,4.722223503206934e-06,81.014,0.10588043571249063,0.3400000000000034,-0.00018840282888531773
S091,14549.0,14578.984375,N3,0.05984895833333344,51.27616597516436,-89.33,90.79,180.12,-0.04,31.981439292250943,734.375,742.3746744791666,0.4769696007084728,0.06441510347391795,0.49727992759500045,64.44407814880408,0.44763253251622453,65.37583651472461,0.22083333333333333,126,0.3094760916666666,0.0014515105464987868,6.651282186220261e-08,35.606666666666676,0.012736648783027734,2.083333898474892e-07,80.86666666666666,0.018499249234015042,0.04999999999999716,9.444447006413966e-06
S091,14579.0,14608.984375,N3,-0.048796874999999615,51.38845473612797,-91.99,90.2,182.19,-0.48,12.843062898851421,734.375,738.0777994791666,0.4655853823563288,0.07198059875565237,0.49495720914932523,64.42472458967661,0.4433150245435309,64.99230723708769,0.42916666666666664,194,0.3095509083333333,0.0012850825200211376,-1.6972335333207485e-07,35.60266666666668,0.017499206331208612,-1.1319447515040919e-05,80.90700000000002,0.024241837114107684,0.05000000000001137,3.8715288279980614e-05
S091,14609.0,14638.984375,N3,0.1965260416666666,50.6112588209583,-89.39,88.46,177.85,-0.48,14.54334908401717,750.0,742.7652994791666,0.4859472690157738,0.07198059875565237,0.4959460218584501,64.43850938446775,0.44530885296764433,65.37583651472461,0.22916666666666666,115,0.3094867833333333,0.0013860781374278794,2.135590857093849e-07,35.591333333333345,0.011469767022722984,-3.194445310992953e-06,81.05300000000001,0.08004790232520811,0.19999999999998863,0.0001235764224111327
S091,14639.0,14668.984375,N3,0.04570312500000006,51.8752693810816,-91.0,96.4,187.4,-0.88,12.352261083778789,750.0,743.06640625,0.4813131271728301,0.04559597630883185,0.49607837082461076,64.43575917059881,0.44677374056613894,64.99230723708769,0.23229166666666667,119,0.3094974583333333,0.0014461088357833047,-6.694279159689406e-07,35.59666666666667,0.014907119849997753,-1.166666983145318e-05,81.07833333333332,0.033073991124280853,0.09000000000000341,2.322917296797926e-05
S091,14669.0,14698.984375,N3,-0.5079791666666666,50.93089297722846,-88.57,88.82,177.39,-1.16,27.2644333698949,734.375,742.2770182291666,0.47495887979908324,0.045595976308831845,0.49418383718061387,64.42168410681575,0.44458802088169,65.37583651472461,0.4239583333333333,193,0.3096469916666667,0.0015026937340203012,6.999483235536859e-07,35.603333333333346,0.014907119849997963,4.8611124297710134e-06,80.83200000000001,0.11588500046741686,0.3499999999999943,-0.00018222227165317674
S091,14699.0,14728.984375,N3,0.5737239583333332,50.462244408741384,-87.2,89.07,176.26999999999998,-0.07,26.384763785626905,734.375,739.0950520833334,0.47213591940127675,0.05589199343873465,0.4979896651510171,64.447113453704,0.445796087996342,64.99230723708769,0.215625,113,0.31039453333333333,0.0015825180511520938,-4.6523753939820826e-07,35.59600000000001,0.012806248474864593,-1.3194448023664668e-06,80.96666666666667,0.08125405972763357,0.28000000000000114,0.000116388920461402
S091,14729.0,14758.984375,N3,-0.4436250000000001,49.47012937732602,-85.8,87.25,173.05,-1.1400000000000001,17.75136282439496,750.0,744.2626953125,0.4675911601554883,0.03225804701500421,0.49834687655788523,64.44923563614167,0.4450946533293195,64.99230723708769,0.20520833333333333,108,0.3109925916666667,0.001515339805103317,-8.962456858305356e-07,35.58666666666668,0.014681810363697239,2.430556214886037e-06,81.17566666666669,0.03293259108475425,0.10000000000000853,4.559029014493679e-05
S091,14759.0,14788.984375,N3,0.4537708333333333,49.02885759246775,-86.03,87.13,173.16,-0.665,12.843104152111485,750.0,739.9658203125,0.48274816408822885,0.045595976308831845,0.4994256684071103,64.46954362100313,0.4481762669347522,65.37583651472461,0.23958333333333334,126,0.31094987500000004,0.0013808480640684797,8.150935370804915e-08,35.58666666666668,0.013743685418725672,4.652779039924782e-06,81.00499999999998,0.07927799190191438,0.30000000000001137,-0.00013579864794885152
S091,14789.0,14818.984375,N3,-0.42364583333333333,50.15124319183988,-89.85,90.96,180.81,-0.39,14.771561458057604,750.0,742.2281901041666,0.4695306000411475,0.07198059875565237,0.49999023427963085,64.48958128997421,0.4485495630099285,65.37583651472461,0.22916666666666666,119,0.31088583333333325,0.0014429203277458581,-2.533629159513116e-07,35.588666666666676,0.015434449203720422,-8.333335593896173e-06,80.98,0.038470768123341804,0.12999999999999545,5.062501373291239e-05
S091,14819.0,14848.984375,N3,0.048927083333333066,50.24549549353172,-87.09,87.31,174.4,-0.36,14.046023571107064,750.0,745.3857421875,0.47981726664950275,0.045595976308831845,0.4996863165332382,64.47370834137942,0.4487197091842494,65.37583651472461,0.23854166666666668,127,0.3106935583333333,0.0013179380789439849,-2.516357019411078e-07,35.577333333333335,0.010934146311238818,2.1527783617559533e-06,80.85133333333333,0.0630202789231826,0.25,-0.00010305558351117418
S091,14849.0,14878.984375,N3,0.36790104166666676,50.344585799192856,-88.94,87.77,176.70999999999998,-0.885,11.845548369649556,750.0,743.3430989583334,0.47249774948023704,0.045595976308831845,0.4999121016488799,64.47823198639057,0.4463928492571387,64.99230723708769,0.22291666666666668,118,0.3104586833333334,0.0015816486439963681,8.481339106266254e-08,35.57866666666667,0.01117536974282789,-2.4305562148867277e-06,80.68,0.06836178269569508,0.1700000000000017,-0.00010944447413315866
S091,14879.0,14908.984375,N3,-0.41972916666666676,52.11015211019329,-90.44,91.89,182.32999999999998,-2.29,13.53886648717241,734.375,737.9313151041666,0.487418752132656,0.045595976308831845,0.5,64.49234871665439,0.4477707852416278,64.99230723708769,0.25729166666666664,128,0.30962565833333333,0.0013572247756349018,-9.151977309021409e-08,35.57133333333334,0.013597385369582212,-1.9444449719093773e-06,80.96433333333334,0.13838794102891422,0.5499999999999972,0.00023704867541467952
S091,14909.0,14938.984375,N3,0.42236979166666655,50.88459743583518,-89.3,90.38,179.68,-1.545,11.42178979260016,750.0,742.2607421875,0.47729594061814057,0.0,0.49914858064063,64.4618347556465,0.4471967528121945,64.99230723708769,0.22708333333333333,120,0.31024509166666664,0.0014570876775028144,7.845355860827834e-07,35.56866666666667,0.015434449203722079,2.638889604733749e-06,81.28699999999999,0.06578500335689386,0.1599999999999966,0.00010545141749441491
S091,14939.0,14968.984375,N2,-0.15572395833333344,51.84787125468654,-89.12,90.36,179.48000000000002,-1.74,14.09681865613509,734.375,737.890625,0.4699106002445808,0.03225804701500421,0.4999728725279891,64.48939771877095,0.44823565623100287,64.99230723708769,0.23125,122,0.310405275,0.001560828294861946,9.999351670827972e-09,35.572,0.010770329614270692,9.791669322828495e-06,81.24033333333334,0.05724120504981705,0.1599999999999966,5.3090292179437804e-05
S091,14969.0,14998.984375,N3,-0.08584895833333324,50.807027408331386,-87.82,89.95,177.76999999999998,-1.935,11.751299265458746,734.375,739.3798828125,0.47794114111990815,0.06451609403000842,0.49994682877004254,64.48196542530985,0.44848064523184183,65.37583651472461,0.23541666666666666,120,0.3111314333333333,0.001391371414188976,8.674264505822827e-08,35.571333333333335,0.01257864150941077,-5.000001356337955e-06,81.34233333333334,0.027650597743189093,0.10000000000000853,3.2812508900964484e-05
S091,14999.0,15028.984375,N3,0.25929687500000026,52.44947761571954,-90.37,94.05,184.42000000000002,-1.4049999999999998,12.380655437094445,734.375,740.1529947916666,0.47391941232133544,0.05581428468591173,0.4999121016488799,64.49536570855525,0.4482489483730624,65.37583651472461,0.2375,127,0.3112382083333333,0.0016923982485210834,8.626645135266153e-07,35.57266666666668,0.01691810338726787,-9.722224859542325e-07,81.40766666666669,0.11488206513154611,0.3299999999999983,-0.00017739588145504573
S091,15029.0,15058.984375,N3,-0.04722395833333346,50.51013111095314,-90.93,94.32,185.25,-1.9449999999999998,10.09155272617168,734.375,736.6048177083334,0.4422166387140533,0.06441510347391795,0.4999989149293782,64.47833175224768,0.44714961749101034,65.37583651472461,0.1875,107,0.3118255666666666,0.001610791191378394,1.2656926176466483e-06,35.57066666666666,0.01590248058917065,1.3194448023673797e-06,80.98266666666665,0.15741523292094797,0.38000000000000966,-0.00027020840663205883
S091,15059.0,15088.984375,N3,-0.52609375,51.31140072159446,-103.38,109.32,212.7,-1.79,28.59193181161696,734.375,742.7978515625,0.47461492980859993,0.07894706383956841,0.4997221450188317,64.50243649361731,0.4463496987071186,65.37583651472461,0.23645833333333333,118,0.314057525,0.0015221500745245175,-2.5916261370513497e-07,35.572,0.010770329614270692,-5.208334746185369e-06,80.78166666666667,0.05733430231738982,0.14999999999999147,-8.218752229478722e-05
S091,15089.0,15118.984375,N3,0.5203020833333333,52.18184665000443,-91.49,93.34,184.82999999999998,-0.645,13.400985431021889,750.0,740.52734375,0.47356783363690946,0.04564354645876384,0.49932137105998403,64.5080224817258,0.4488806417005112,64.99230723708769,0.24895833333333334,122,0.31433515,0.0013615775510414357,3.8369368047247024e-08,35.564,0.011718930554165776,6.1805572321395525e-06,80.95599999999999,0.16487571076419769,0.44999999999998863,0.0002769445195704502
S091,15119.0,15148.984375,N3,0.014864583333333433,51.425412649073564,-92.9,95.04,187.94,-1.53,28.13853067892046,750.0,748.4781901041666,0.4788903188622631,0.05589199343873464,0.5,64.48810738903768,0.4444626492880573,64.99230723708769,0.22708333333333333,126,0.31528561666666666,0.0012631526246085886,4.302470785175501e-07,35.566,0.013063945294845657,-4.027778870383352e-06,80.89699999999999,0.09033825324855511,0.269999999999996,-0.00015475698642496456
S091,15149.0,15178.984375,N3,-0.2777760416666667,51.88997631910964,-88.72,92.56,181.28,-1.525,15.01192669549768,750.0,739.8844401041666,0.47951074602719335,0.03225804701500421,0.4999121016488799,64.49635428248398,0.45124007096640206,65.37583651472461,0.25729166666666664,131,0.31538171666666664,0.0016476475057048935,7.67652117961199e-08,35.56333333333334,0.010749676997733078,2.2222228250390908e-06,80.70233333333337,0.03480261803689501,0.11999999999999034,-2.5520840256302328e-05
S091,15179.0,15208.984375,N3,0.28179687500000017,51.82052731292871,-90.27,92.67,182.94,-1.2149999999999999,25.862162869686102,750.0,745.8577473958334,0.48101883878273305,0.0,0.4988876515698588,64.51709439141906,0.4445855246447879,64.99230723708769,0.24479166666666666,132,0.3153817833333333,0.001517903423494252,-3.7099142008231326e-07,35.56933333333333,0.012092238098146593,-1.8750005086267328e-06,80.833,0.02841947688939396,0.10000000000000853,2.0729172289816648e-05
S091,15209.0,15238.984375,N3,-0.4385260416666668,51.62068815996835,-89.56,92.12,181.68,-2.31,14.606056221742234,734.375,739.9820963541666,0.4816049827140496,0.03225804701500421,0.49999023427963085,64.4864838616338,0.44565400994342574,64.99230723708769,0.234375,118,0.316065225,0.0014095008363631224,5.628584426156831e-07,35.56666666666667,0.01043498389500065,2.708334068016392e-06,80.89100000000002,0.06523547092392971,0.1700000000000017,9.336808088327059e-05
S091,15239.0,15268.984375,N3,0.44676562499999967,50.54910964027196,-88.99,91.17,180.16,-0.895,14.8074056500442,750.0,738.96484375,0.4714045207910316,0.05581428468591172,0.4999305507323548,64.49363452662247,0.44635249125683746,65.37583651472461,0.225,108,0.3153496916666666,0.0013368476963603211,-5.747668659849381e-07,35.55933333333334,0.011234866364236902,-6.944446328247167e-07,80.92399999999999,0.1272425505350586,0.37000000000000455,0.00020611116702234534
S091,15269.0,15298.984375,N3,-0.19522916666666665,51.42202728149824,-91.94,94.11,186.05,-1.6949999999999998,14.381648935503124,750.0,745.6705729166666,0.46517619123176207,0.1201127942116631,0.4990866223384697,64.51527396125924,0.44399778940877094,65.37583651472461,0.22291666666666668,126,0.31528562500000007,0.0015279361955619544,-9.700979194059088e-08,35.554,0.013063945294843917,-7.0833352548108195e-06,80.93866666666665,0.14219079513886707,0.3500000000000085,-0.00023354173001892195
S091,15299.0,15328.984375,N3,-0.3001875,50.142996796934106,-87.23,91.4,178.63,-0.32999999999999996,12.810596748559078,750.0,746.4274088541666,0.4763094159495718,0.03225804701500421,0.4975973086716026,64.52923528065357,0.44567637068950616,64.99230723708769,0.253125,126,0.3148264166666666,0.0015418476447827845,-1.5461158707996964e-07,35.55666666666668,0.01299572579307919,2.777778531289735e-07,80.67833333333333,0.12269429036792347,0.3399999999999892,-0.0002175347812323037
S091,15329.0,15358.984375,N3,0.03483333333333327,49.99098057997285,-89.71,89.21,178.92,0.12,12.808727753224472,750.0,750.4720052083334,0.4841229182759271,0.05581428468591172,0.49264997011626366,64.5617001719658,0.4429965069760053,64.99230723708769,0.0,0,0.314975925,0.001439774601355482,7.39240868934698e-07,35.553333333333335,0.01043498389499959,3.819445480536381e-06,80.497,0.06517412574531642,0.21999999999999886,-6.343751720852791e-05
S091,15359.0,15388.984375,N3,0.4627187499999999,51.159821475858685,-91.26,92.04,183.3,-0.35,13.643049096816375,734.375,737.8173828125,0.4353917456983104,0.05581428468591172,0.4997872811395753,64.46472988225914,0.442126913190487,64.99230723708769,0.165625,96,0.31600113333333335,0.001515752859875985,6.068547653143358e-07,35.56000000000001,0.01437590576856598,-6.7361129383994225e-06,80.508,0.1996730661189271,0.5300000000000011,0.0003465278717794799
S091,15389.0,15418.984375,N3,-0.06828645833333329,51.42657718910225,-89.18,90.89,180.07,-0.78,13.72715748048859,734.375,735.0016276041666,0.4564164460470528,0.05581428468591172,0.49670681989535387,64.53143027166361,0.4410295833843184,64.99230723708769,0.21354166666666666,122,0.31623604999999994,0.0015238886598108155,-7.797879719476908e-07,35.547333333333334,0.011234866364234344,3.1944453109930272e-06,81.09933333333333,0.25334999945179165,0.7000000000000028,0.0004485417883414164
S091,15419.0,15448.984375,N3,-0.4169583333333332,50.037617783589546,-86.91,86.54,173.45,-1.56,11.84538064119183,750.0,739.9739583333334,0.45061686115319255,0.04559597630883185,0.49834687655788523,64.51509329367902,0.4444423185990417,65.37583651472461,0.20625,112,0.3155846583333333,0.001417356591780593,-4.618883631424637e-07,35.54600000000001,0.013063945294843048,-6.944446328244964e-06,81.49533333333333,0.06696931303879883,0.20000000000000284,-9.326391418834092e-05
S091,15449.0,15478.984375,N3,0.4408020833333335,50.86050594909894,-89.92,89.58,179.5,-0.415,12.541191789121548,750.0,741.5608723958334,0.4287201864431962,0.08523227047636099,0.49895615865914406,64.50478471572133,0.4453917134905389,65.37583651472461,0.18020833333333333,108,0.31608654999999997,0.0015758977750793357,9.705371556361618e-07,35.53433333333332,0.019267128022157055,4.965279124695917e-06,81.28633333333333,0.14476379228092975,0.38000000000000966,-0.0002569792363767504
S091,15479.0,15508.984375,N3,-0.4022604166666666,52.13852804163971,-94.37,95.71,190.07999999999998,-1.98,15.544906483066223,750.0,740.6901041666666,0.46005358987356626,0.05589199343873463,0.494022428359505,64.54838896457181,0.44048126522247144,64.99230723708769,0.23020833333333332,119,0.3169409583333333,0.0013979919670479338,-1.0900979519580157e-07,35.53233333333333,0.013828312341793271,-1.0763891808773598e-06,81.08500000000001,0.03074085229787711,0.09999999999999432,-3.8784732743252155e-05
S091,15509.0,15538.984375,N3,0.12671354166666673,51.201051942127535,-88.75,89.25,178.0,-0.9850000000000001,27.388815905731885,750.0,744.5149739583334,0.4330127018922193,0.032258047015004204,0.49874408239318707,64.50621340082056,0.4442870931423,65.37583651472461,0.184375,104,0.3169409416666666,0.0013481588512723127,3.120328537415499e-07,35.53366666666667,0.018345450541088344,-1.9131949634316103e-05,80.99833333333332,0.006368324391514054,0.030000000000001137,-4.8958346614132225e-06
S091,15539.0,15568.984375,N2,0.31681250000000005,49.453717967179614,-89.39,88.48,177.87,-0.095,13.973887019307785,750.0,744.8160807291666,0.45061686115319255,0.045595976308831845,0.4992659542323665,64.50345291633792,0.44297690283529756,64.99230723708769,0.19583333333333333,110,0.31831858333333335,0.0011777027184546808,3.651068698749066e-07,35.534666666666666,0.015860503004492307,-1.0486113955650496e-05,80.73433333333332,0.1127440562611703,0.3299999999999983,-0.00019614588654130773
S091,15569.0,15598.984375,N3,-0.2271458333333335,50.11252779349424,-91.68,90.22,181.9,-0.7050000000000001,30.143984956102702,750.0,755.2408854166666,0.47028798616438794,0.0,0.49881695979086366,64.5141026526076,0.4464402858275394,64.99230723708769,0.23645833333333333,131,0.3190982833333333,0.0014347599287182324,-3.3253134020489443e-07,35.53366666666666,0.014487542541399258,-8.576391215382713e-06,80.51299999999998,0.12288612614937533,0.4000000000000057,-0.00020475699998833758
