participant_id,window_start_time,window_end_time,sleep_stage,BVP_mean,BVP_std,BVP_min,BVP_max,BVP_range,BVP_median,SDNN,median_nni,IBI_mean,x_std,y_std,z_std,mag_mean,mag_std,mag_max,movement_density,burst_count,EDA_mean,EDA_std,EDA_trend,TEMP_mean,TEMP_std,TEMP_slope,HR_mean,HR_std,HR_range,HR_trend
S093,7077.0,7106.984375,W,-0.23954687499999996,43.93154789998217,-92.94,78.56,171.5,-0.10500000000000001,26.88817847007867,656.25,658.3984375,0.24016912082368583,0.48042294553572507,0.07198059875565235,62.51053327939556,0.2866835518709899,63.4428877022476,0.06666666666666667,50,0.04708068333333334,0.0019516482264286838,2.4192211423668473e-06,35.00366666666667,0.018882678717690875,2.5104173476608708e-05,92.76433333333333,0.47156253267432213,1.6199999999999903,-0.0008272571688523114
S093,7107.0,7136.984375,W,-0.1901302083333346,92.84140443426519,-528.03,367.68,895.71,-0.52,11.993134689339952,671.875,662.4348958333334,6.620523169654386,2.784954617623458,16.650395703506067,62.70539740782583,2.835564775013331,85.15867542417507,0.07083333333333333,42,0.04404858333333334,0.004727993946667257,5.2019528000088975e-06,35.03233333333333,0.0217076535402193,-1.2847225707254173e-06,91.64566666666666,0.8735661903306975,2.2700000000000102,-0.0014135767723461286
S093,7137.0,7166.984375,W,0.29781249999999965,53.907214509306115,-285.58,296.17,581.75,1.1749999999999998,15.877643622070462,671.875,670.1497395833334,4.3813599605792115,2.9028534512996385,9.357252646120726,62.70606311593124,2.174583906754114,79.18333157931662,0.07395833333333333,41,0.04988827500000001,0.002202027656360156,-6.313263431332309e-07,35.04866666666667,0.011469767022722982,-2.361111751602554e-06,90.81300000000002,0.09406203626685258,0.269999999999996,-0.0001632986554087072
S093,7167.0,7196.984375,W,-0.3516822916666667,84.96495083901446,-606.69,324.31,931.0,-1.1549999999999998,14.681582780739033,687.5,675.3662109375,2.5121786693359742,1.9694498315237403,5.364543992574196,62.76218020370929,1.6493011885202262,83.68392916205596,0.05416666666666667,39,0.057820441666666667,0.0033933761575453466,5.431009502769504e-06,35.07000000000001,0.013662601021281601,1.5138892995578807e-05,90.38366666666666,0.4649192283492782,1.480000000000004,-0.0007764238217295517
S093,7197.0,7226.984375,W,0.09146354166666668,53.908826495854356,-107.58,102.06,209.64,0.485,9.362770864147546,656.25,650.7649739583334,0.22398497903505343,0.47889031886226313,0.41869817258046665,62.51025764186599,0.29752794972480634,64.20280367709809,0.12291666666666666,97,0.06410837500000001,0.0017217884842148882,2.5233594084633825e-06,35.096666666666685,0.010749676997729848,9.166669153283117e-06,89.40466666666664,0.1661271266898404,0.519999999999996,0.0002683334061234292
S093,7227.0,7256.984375,W,0.28670312499999995,62.584917741112875,-118.41,107.74,226.14999999999998,1.51,8.443485852538268,656.25,649.0885416666666,0.05581428468591172,0.44755799593150186,0.4496092053105675,62.66297188584754,0.23908736230512642,63.812224534175265,0.19375,135,0.06994810833333333,0.0019247628503092419,2.8723599371636113e-06,35.113333333333344,0.015563490039905153,1.4236114972904234e-05,90.478,0.6240908053587501,1.6199999999999903,0.0010855558500314265
S093,7257.0,7286.984375,W,0.04316145833333351,77.87881560378875,-327.53,304.32,631.8499999999999,2.415,24.555234205963544,640.625,650.5208333333334,2.2725681446817436,2.2243032519414303,5.888500666907211,62.632914283761124,1.7678631139592453,84.02380615040002,0.03958333333333333,24,0.06819731666666667,0.005363721090162646,-4.3256721803581215e-06,35.11933333333334,0.0143604394856923,-6.944446328243706e-07,91.551,0.08022260695506218,0.2599999999999909,7.364585331104737e-05
S093,7287.0,7316.984375,W,-0.41000520833333337,48.7368289777049,-189.61,163.53,353.14,0.565,32.51123637582104,625.0,624.7314453125,1.2382626017260367,0.6794477945770047,1.8212861755730025,62.55396162772057,0.5018811389795709,64.91532946846992,0.08333333333333333,46,0.07179518333333333,0.0019103455576733284,2.760613162058691e-06,35.12,0.011254628677423884,8.95833576343827e-06,92.49600000000001,0.4470689730530023,1.6799999999999926,0.0007905557700075326
S093,7317.0,7346.984375,W,1.9302968750000002,127.16278464271278,-476.3,522.05,998.3499999999999,5.595000000000001,20.22575538491458,625.0,643.3837890625,11.513205685860502,7.963678328890593,21.699147703716577,63.17719059486281,4.228115838098568,95.84883932526257,0.07604166666666666,42,0.06958508333333334,0.006424719979090313,-4.6741405908584475e-06,35.116,0.01800000000000092,-8.541668983742966e-06,93.82133333333334,0.1976652613778047,0.9500000000000028,0.00025145840154579225
S093,7347.0,7376.984375,W,-1.4118541666666657,126.78227989475528,-561.88,447.57,1009.45,-2.085,3.2533258717091775,625.0,625.6917317708334,3.72737954734027,1.7249367817522085,12.636973445934904,62.8462255971075,1.9745387303040323,77.89736837660179,0.071875,51,0.07297991666666667,0.006001985956863684,7.369215106666421e-06,35.07633333333333,0.0225807194059212,-1.447917059439477e-05,98.21433333333334,2.5411541778403683,8.590000000000003,0.00454781373367343
S093,7377.0,7406.984375,W,-0.025567708333333262,32.39072892354447,-75.54,68.82,144.36,-0.78,43.215584823615835,640.625,643.1640625,0.11557806855349137,0.232399078305449,0.25828082463667335,62.9314473529804,0.160132421424081,63.41135544995076,0.057291666666666664,45,0.07978033333333334,0.0019355212878073838,2.8637512108700103e-06,34.99433333333333,0.01626516386500825,-2.2673617261724127e-05,104.089,0.1760179915046571,0.7800000000000011,0.00012725697896511044
S093,7407.0,7436.984375,W,-0.3674895833333333,35.02173175255342,-63.1,65.32,128.42,-3.6799999999999997,12.700817512205507,640.625,642.7164713541666,0.21358993356949718,0.32714138285304106,0.17116012950028855,62.952367548848365,0.2488372855997313,63.608175575157006,0.12083333333333333,80,0.08391229166666667,0.0014420030304859131,1.805644804048613e-06,34.94666666666667,0.019379255804999045,-2.1180561301151887e-05,99.29166666666667,2.8766196404035687,9.819999999999993,-0.005152536119937098
S093,7437.0,7466.984375,W,0.22527604166666687,40.912400084240566,-79.44,93.42,172.86,-1.63,34.67958067799973,640.625,640.9423828125,0.9021963939926457,0.5030462757595524,1.3116399298418586,62.74527914208538,0.4527089371610749,65.97726881282674,0.20208333333333334,156,0.08642110833333333,0.0014407808287859836,8.431080846104839e-07,34.934666666666665,0.01231079020841485,-2.4305562148865054e-06,92.37566666666667,0.2701565389835218,1.2399999999999949,-0.0004234376148648043
S093,7467.0,7496.984375,W,-0.12474999999999957,66.18295556274919,-430.11,364.36,794.47,-1.2349999999999999,14.076621418099679,640.625,645.21484375,0.9097269269386402,0.7135104920197195,0.7786031551849047,62.62919436800687,0.7896810417811605,79.63039620647382,0.07395833333333333,55,0.09096867500000001,0.0022156476185023204,3.2717215906362824e-06,34.94933333333334,0.01504068556357105,1.3263892486950151e-05,91.214,0.5197345476298452,1.4499999999999886,-0.0008701391249292331
S093,7497.0,7526.984375,W,0.08865625000000019,44.09662342476087,-87.89,125.27,213.16,-2.25,26.253366204043108,640.625,643.7662760416666,0.4640551930775285,0.3197747009614738,0.7072264636121398,62.72058864527368,0.4026598941612151,67.0,0.11145833333333334,75,0.09542065833333332,0.0014886541264725968,1.893667831398609e-06,34.95133333333333,0.014544949486180793,1.2500003390842468e-05,90.67033333333333,0.1820711094295001,0.45000000000000284,0.0002973264695438577
S093,7527.0,7556.984375,W,0.08339062500000004,51.01992848299488,-104.5,109.35,213.85,-1.935,9.326807414309197,640.625,639.6891276041666,0.40670914224896504,0.11580316603568698,0.23385126668580514,62.54408475529361,0.32908274944491567,63.50590523722971,0.19583333333333333,123,0.0986023,0.0011917814019357731,1.0769521150586239e-06,34.976666666666674,0.011925695879999684,6.666668475116137e-06,91.74166666666666,0.5897235698943089,1.5799999999999983,0.0010042711057593045
S093,7557.0,7586.984375,N1,0.13314062499999993,54.21865589887142,-108.15,119.81,227.96,-2.795,24.34664628582673,640.625,641.8782552083334,0.26391607133392486,0.12801909579781012,0.17714153455327433,62.449360540589396,0.22884071201452544,63.229739838148944,0.06979166666666667,51,0.10218909999999998,0.0015578186640299303,2.0643898829182617e-06,34.985333333333344,0.0105619863451709,-2.291667288321316e-06,92.73233333333334,0.07287813267518693,0.3299999999999983,4.732640172699794e-05
S093,7587.0,7616.984375,N1,-0.04428124999999999,58.09710885577754,-120.16,119.06,239.22,-2.4699999999999998,12.235575892423864,640.625,637.7360026041666,0.21721684953571677,0.19982631347136331,0.5081582690352376,62.539818099057854,0.22431853115659126,63.50590523722971,0.0375,23,0.10528486666666667,0.0015424195005106602,2.028300463406157e-06,34.99666666666667,0.011055415967851132,7.013890791528595e-06,92.98966666666665,0.10625388881772173,0.3499999999999943,0.00017017365727366906
S093,7617.0,7646.984375,W,0.05322916666666687,83.90394334687623,-331.79,332.96,664.75,-1.2200000000000002,22.657791903706176,625.0,618.1070963541666,2.6579314530993834,1.8211288852430703,7.496108944349432,62.68326870687358,1.9628081639705472,79.33473388119481,0.07916666666666666,34,0.10405724166666667,0.004314250761518607,1.387379499614664e-06,35.039,0.03448187929913358,5.114584720753183e-05,93.77366666666667,0.7642359292493089,2.269999999999996,0.0013065628544278566
S093,7647.0,7676.984375,N1,0.12913020833333333,87.68534345544705,-184.63,155.13,339.76,2.6950000000000003,19.862106523563543,656.25,665.0390625,0.14772214321902533,0.16975012272945983,0.5228751643556997,62.591171077596776,0.22474756582646133,63.76519426771944,0.036458333333333336,31,0.103801025,0.0011512679420426007,-6.596818195751469e-07,35.11,0.02463060426921422,3.7013898929550385e-05,94.64533333333334,0.4806920936409163,1.4399999999999977,-0.0008590280108040367
S093,7677.0,7706.984375,N1,-0.27614062500000014,89.65157253251691,-184.3,192.87,377.17,-0.54,17.672766702994466,640.625,642.5374348958334,0.09107288747664329,0.1862341529425315,0.4659918856589672,62.58408011040107,0.19257051063811073,63.30876716537765,0.33541666666666664,102,0.10365157500000001,0.0010588717553958106,-3.2497599961371564e-07,35.16333333333332,0.01598610507770949,2.2152783787105626e-05,93.17266666666664,0.6888054071280862,2.299999999999997,-0.0011408336428042644
S093,7707.0,7736.984375,N1,0.36383854166666635,106.27922788483575,-221.67,201.28,422.95,-1.5950000000000002,17.88305034324667,640.625,636.2874348958334,0.3108969299328423,0.23258809561588104,0.29456152677421327,62.74222818787526,0.23998684809281015,63.66317616958802,0.03125,25,0.103309975,0.0012572503626465978,9.421246045259884e-07,35.21933333333333,0.018607047649269962,1.798611599015617e-05,91.91533333333335,0.4345245166334749,1.519999999999996,0.0007513890927162243
S093,7737.0,7766.984375,N1,-1.2596302083333333,128.66506124275867,-315.03,276.2,591.23,-8.785,5.952621523219087,640.625,643.2535807291666,0.27794938275700487,0.3476343040826092,0.3094837070518504,62.476307298574206,0.30887106391258434,63.66317616958802,0.196875,135,0.10469773333333333,0.0011689881004051702,9.577116313236836e-07,35.24733333333334,0.0112348663642369,1.1527780904890285e-05,92.85599999999998,0.17988144243732723,0.5700000000000074,-0.000268055628270299
S093,7767.0,7796.984375,N1,0.7824375,125.76091003283874,-248.15,249.61,497.76,-6.545,16.846432385961098,640.625,641.2516276041666,0.3369594436525955,0.39046663456476455,0.38863520991913336,62.502384633280975,0.324098987040324,63.66317616958802,0.21041666666666667,139,0.10688618333333334,0.0010024805981774536,4.3988162974219496e-07,35.25533333333333,0.015434449203721116,1.6805560114357015e-05,93.20500000000001,0.1873632834895894,0.6500000000000057,0.00011295141952892157
S093,7797.0,7826.984375,N2,-0.5737343750000001,131.60012312384322,-260.43,331.48,591.9100000000001,-7.5649999999999995,6.944126015886011,640.625,638.6149088541666,0.18819316317727025,0.4671953385630041,0.2998191005515752,62.57351984053839,0.2947989694943451,64.03124237432849,0.328125,193,0.10919271666666666,0.0010686447896232337,8.509542238916616e-07,35.285333333333334,0.013349989596333139,7.430557571223005e-06,92.90100000000001,0.17795786018043608,0.5,0.00031059036203080417
S093,7827.0,7856.984375,N2,0.5240781250000001,130.71588810790234,-309.9,312.42,622.3199999999999,-6.16,7.405648144010197,640.625,637.9638671875,0.6352492948966308,0.19346977943739838,0.42389050440204745,62.67761901289188,0.5097301980190425,67.38694235532579,0.04479166666666667,34,0.11083685,0.0013933226573554305,1.7396918781716246e-06,35.30933333333334,0.013148721948876832,1.520833745885881e-05,93.13033333333334,0.06720532386318616,0.23000000000000398,9.375002543093574e-07
S093,7857.0,7886.984375,N2,-0.41136979166666665,134.99050978274332,-239.53,227.69,467.22,-7.03,6.380353653478971,640.625,637.3209635416666,0.4956746507286812,0.0,0.431803187870997,62.64364387847616,0.3898802722061546,63.2771680782255,0.10729166666666666,90,0.12413855000000001,0.00913595965297753,1.2233724672776872e-05,35.34733333333334,0.019310331143945925,2.1666672544127213e-05,93.444,0.08220300075625857,0.28000000000000114,8.00000217013978e-05
S093,7887.0,7916.984375,N2,0.44985937499999956,130.96059584347555,-231.85,250.25,482.1,-7.7,4.8149582170394725,640.625,638.96484375,0.5146761049976533,0.17809453930582925,0.5134381234357478,62.729839326482015,0.4478743206317699,66.07571414672717,0.234375,166,0.13013835,0.0036256487066684585,5.237107323434062e-06,35.380333333333326,0.014255603186895636,1.7118060199127683e-05,93.45333333333332,0.09613647706371382,0.3499999999999943,-9.250002509223928e-05
S093,7917.0,7946.984375,N2,-0.31708333333333333,134.0202702335442,-312.49,248.41,560.9,-4.9399999999999995,9.437858928398102,640.625,637.6953125,0.45825756949558394,0.28855482821967976,0.448589610767892,62.89149592620856,0.3837188602234201,63.2771680782255,0.41458333333333336,215,0.18068845833333333,0.02669403713906155,3.761141449962415e-05,35.39933333333332,0.009977753031395193,2.9166674578627708e-06,93.21566666666668,0.06550742112327382,0.20999999999999375,-6.0173627434250295e-05
S093,7947.0,7976.984375,N2,1.064442708333332,134.6051804727667,-418.16,280.15,698.31,-5.285,6.821273334023563,640.625,644.62890625,0.3475859206329023,0.414808356017839,0.5201818842562026,62.87928730623944,0.3685822288095089,64.41273166075166,0.3375,161,0.23686461666666667,0.04733687790704398,6.840696300102077e-05,35.40466666666665,0.01024152766382336,-3.0555563844275905e-06,92.671,0.268940513868774,0.8500000000000085,-0.00040871538864892254
S093,7977.0,8006.984375,N2,-0.9981145833333339,145.7326914329058,-262.56,265.89,528.45,-10.175,0.0,640.625,640.625,0.42634081795619283,0.45500567571246353,0.4169998667732268,62.871161659296526,0.40485381386590397,64.03905058634146,0.40625,227,0.462882675,0.0534427894583174,7.595975780158359e-05,35.40666666666665,0.012736648783027736,7.569446497787948e-06,92.64566666666666,0.1642494715026166,0.5499999999999972,-0.000271562573666062
S093,8007.0,8036.984375,N2,-0.27247916666666705,136.63529407239392,-318.67,449.16,767.83,-7.105,12.092518439548853,640.625,640.6575520833334,0.4115189828718584,0.26963677986423806,0.21665665040950546,62.60728646864242,0.3188092951567239,64.8074069840786,0.128125,62,0.529714675,0.039087152409745946,-1.810153637736989e-05,35.42466666666666,0.013597385369582885,1.0972225198630512e-05,92.857,0.3073016975763948,0.9500000000000028,0.0005172570847594102
S093,8037.0,8066.984375,N1,0.32098437499999954,135.50222198754622,-383.62,440.17,823.79,-4.045,17.03876916554272,640.625,636.3932291666666,4.045032425876076,1.4750496548845398,3.140206750757026,62.6792960654026,2.4368291717460773,99.53893710503444,0.025,11,0.5187278833333333,0.08272303235457698,6.0938348561835006e-05,35.443333333333335,0.010749676997732492,5.138890282902527e-06,92.88633333333334,0.30341921861052584,1.0700000000000074,0.0002866320221983548
S093,8067.0,8096.984375,N2,0.48451562500000006,126.27785136800335,-234.8,214.09,448.89,-4.865,11.157196883318173,656.25,658.3902994791666,0.49444724854854055,0.20064998546390841,0.431803187870997,62.726765165487684,0.36201778100102405,63.835726674018524,0.19375,149,0.5659470666666666,0.03850118171449056,2.124628354120105e-05,35.46000000000001,0.013416407864997659,1.1875003221299879e-05,92.83166666666668,0.4868270283740973,1.519999999999996,-0.0008742710704945368
S093,8097.0,8126.984375,N2,0.10926041666666694,121.7083829148374,-254.01,247.39,501.4,-5.1850000000000005,7.939034534747029,640.625,643.0257161458334,0.8245573044148531,0.5351683519515663,0.9493230181072897,62.70464756105762,0.479895033886896,66.25707509390978,0.03229166666666667,21,0.5866475583333334,0.04999574499874895,4.289125664367856e-05,35.46866666666667,0.012578641509408312,2.3611117516037626e-06,92.09400000000001,0.284588591947509,1.009999999999991,-0.00027180562928754933
S093,8127.0,8156.984375,N2,-0.4859114583333332,124.20064763318499,-222.52,222.82,445.34000000000003,-8.46,7.742744139228388,640.625,647.3958333333334,0.36471872486052714,0.3745309566644658,0.4951051638428839,62.64977130447297,0.34747493516477784,63.89053137985315,0.12083333333333333,88,0.7801255666666668,0.07412162498834077,-5.5694236462195235e-05,35.48733333333334,0.013888444437333482,1.0069447175957072e-05,91.91333333333333,0.3221214401778035,0.9699999999999989,0.0005701390435490022
S093,8157.0,8186.984375,N2,-0.3698229166666669,124.5008673077634,-280.17,252.3,532.47,-7.565,8.713992675491776,656.25,654.6223958333334,0.7121336472862536,0.6163850708409115,0.6413960468297953,62.62823394373184,0.4319777261162573,67.00746227100382,0.08541666666666667,55,0.6556454666666667,0.04079811717079873,-2.746015501848818e-06,35.50266666666666,0.015040685563570777,7.986113277482556e-06,91.85333333333334,0.2523401584281735,0.7199999999999989,-0.00042791678274652404
S093,8187.0,8216.984375,N1,0.5754947916666671,137.40042947783198,-508.56,392.92,901.48,-2.8899999999999997,8.679862100665046,640.625,645.6868489583334,0.9534061516114501,0.4970125595747053,1.0295962118107274,62.63833883389718,0.5608473915020629,69.03622237637282,0.06770833333333333,47,0.7063769916666666,0.09475972860604656,6.770900382731224e-05,35.518333333333324,0.018988300491501037,1.6909726809278588e-05,91.51966666666667,0.06493501024528442,0.21999999999999886,-5.690973765997342e-05
S093,8217.0,8246.984375,N2,0.3682760416666665,119.83940329621369,-202.6,206.53,409.13,-3.975,10.556713272207055,656.25,655.9814453125,0.36594982010288424,0.05581428468591173,0.14337208778404376,62.59203730871296,0.2629775871638108,63.72597586541927,0.15729166666666666,114,0.6635241750000002,0.1060111100146004,-0.00017856740629541187,35.53333333333333,0.016799470891137924,-3.958334407100634e-06,92.30199999999999,0.20722612447919445,0.7999999999999972,0.00018500005018447392
S093,8247.0,8276.984375,N1,-0.391098958333333,120.11098215682739,-234.44,225.41,459.85,-6.075,27.772855852429768,640.625,643.2454427083334,0.6212072419893381,0.27927353364975743,0.635118611789693,62.658092007292026,0.37495244906340885,65.3834841531101,0.10520833333333333,75,0.4522601916666667,0.043368267485627436,-7.804647147527977e-05,35.555,0.019450792614527698,1.0868058503704002e-05,91.94666666666666,0.10618641888469454,0.4000000000000057,-0.00016861115684981784
S093,8277.0,8306.984375,N2,0.2640677083333339,120.63323950859964,-213.34,207.35,420.69,-1.665,17.416108017499397,640.625,645.1578776041666,0.5521265706339443,0.2068462551362458,0.46631194665933895,62.57615400730033,0.41073063512465185,65.83312236253116,0.2,144,0.42148179999999996,0.03793618335586752,-9.186054575210116e-06,35.562666666666665,0.01504068556357211,7.5694464977883915e-06,91.969,0.26564826368715555,0.730000000000004,0.00043913206356664154
S093,8307.0,8336.984375,N2,-0.1909791666666664,116.5672378683203,-204.1,211.89,415.99,-1.1,28.169374427958754,656.25,652.7099609375,0.18257121422581624,0.3708040718792368,0.16532992583014122,62.589531766576414,0.24258312813091715,63.72597586541927,0.178125,126,0.35854769166666667,0.0105905395800496,7.839502777642889e-06,35.57933333333334,0.016918103387267385,1.847222723313653e-05,92.263,0.1210826164236642,0.37000000000000455,-0.00011850697659152147
S093,8337.0,8366.984375,N2,0.057421875,114.26485175655294,-210.45,202.67,413.12,1.295,14.011429250209254,656.25,651.8961588541666,0.471680653502864,0.49025220266942426,0.5105643918879272,62.61685404928368,0.4049246481806313,66.83561924602779,0.26458333333333334,163,0.30776292499999996,0.02081037231212779,-3.471323576205397e-05,35.58600000000001,0.012000000000000455,-4.1666677969485427e-07,91.30600000000001,0.39933778517273744,1.3599999999999994,-0.0007074307474584297
S093,8367.0,8396.984375,N2,0.44244270833333343,118.67554991982452,-263.51,245.81,509.32,0.31,12.98338272663167,656.25,658.6507161458334,0.304820572791966,0.4979896651510171,0.4894547703539339,62.566708333391325,0.40662225427719767,64.20280367709809,0.2708333333333333,191,0.28305899999999995,0.009384327827109764,-2.544845308389025e-06,35.59933333333335,0.013399834161493433,6.805557401681402e-06,91.20133333333334,0.18311623509551428,0.5300000000000011,-7.368057554269027e-05
S093,8397.0,8426.984375,N2,-0.841635416666667,121.53563869521804,-241.32,361.78,603.0999999999999,-2.38,15.776438635349448,656.25,647.6725260416666,1.1651608585894433,0.43779627864706916,1.8783300867873454,62.78729999423861,0.6363642302050125,68.36665854054884,0.029166666666666667,20,0.25549399999999994,0.022464014925728065,-3.7519715907040976e-05,35.61933333333333,0.012364824660661747,7.777779887636178e-06,91.30766666666665,0.23579204585585453,0.6499999999999915,0.00038850704983372874
S093,8427.0,8456.984375,N2,0.006239583333333579,117.54034141042854,-267.16,194.7,461.86,-0.71,28.104052572393456,656.25,661.0270182291666,0.20644719108850412,0.2252289537275841,0.506158899553512,62.787970327403094,0.28677604237619364,65.43699259593154,0.016666666666666666,13,0.2676003666666667,0.033402100602340695,4.2480064040815985e-05,35.629333333333335,0.014126413400277843,4.791667966491453e-06,91.11400000000002,0.15928172106888727,0.5600000000000023,-7.847224350917684e-06
S093,8457.0,8486.984375,N2,-0.10006770833333327,118.82489257238639,-231.74,218.48,450.22,0.565,11.294212589197294,656.25,653.9713541666666,0.42111041826936546,0.17676441871095616,0.46902306861058435,62.66437589892732,0.36792417416733836,66.2117814289874,0.2,148,0.256422775,0.005695426560645685,-6.449970282652529e-06,35.64633333333333,0.012775845264490007,1.1493058673245853e-05,90.81899999999999,0.1804134141354256,0.5800000000000125,-0.0002712847958129351
S093,8487.0,8516.984375,N1,-0.16126562500000052,119.58410924477776,-414.57,318.34,732.91,-0.16999999999999998,8.717092972609656,640.625,646.0611979166666,2.498185973806238,0.6876862121555797,4.433494744672837,62.80860977602911,0.6970148270795603,67.446274915669,0.05625,36,0.3096204083333333,0.0491249810272221,7.214044903983534e-05,35.65466666666665,0.00921351664072232,2.777778531305035e-07,91.09666666666665,0.31876149216755967,1.0799999999999983,0.0005193056964262427
S093,8517.0,8546.984375,N1,1.0168906250000007,110.16124669172702,-193.89,208.88,402.77,-0.07,15.357872742128208,656.25,656.1442057291666,0.5286086296432677,0.19328741821874146,0.30063409549650216,62.78771253414339,0.3400804754385691,65.43699259593154,0.19166666666666668,109,0.366287675,0.07616161698751352,9.742003532444534e-05,35.65766666666665,0.010857664983268343,5.381945904390278e-06,91.95033333333335,0.0455692391373322,0.1700000000000017,5.795140460921052e-05
S093,8547.0,8576.984375,N2,-1.00228125,112.54610796248902,-272.7,258.19,530.89,-5.115,17.225366360096853,656.25,650.4720052083334,15.236759642425344,8.670426305419378,4.820645050882425,62.952464629854454,0.8854784169735354,69.92853494818836,0.13125,13,0.41296242499999997,0.07637071044055027,8.717741883068001e-05,35.67366666666667,0.015380362660080669,7.604168729430281e-06,91.547,0.3783045510343913,1.1000000000000085,-0.0006276737813785199
S093,8577.0,8606.984375,N1,0.48180208333333374,98.85988273858021,-338.65,260.29,598.94,3.68,35.11730061589345,656.25,649.2757161458334,6.44667757009053,2.7489847794610167,3.1084350896547965,62.77073088198072,3.806372228507343,146.4581851587681,0.00625,3,0.31951693333333336,0.01434659184773706,-1.9530056513144666e-05,35.672999999999995,0.01417744687875923,-1.3541670340077888e-06,91.67566666666667,0.35516834818935505,1.2099999999999937,0.0004818404084853516
S093,8607.0,8636.984375,N1,0.4329322916666667,110.25304302298757,-285.8,234.29,520.09,3.68,9.604102448243914,656.25,659.3505859375,0.6278269400612455,0.5162464689144775,0.5406551051348109,62.61781941688959,0.5676558292420439,67.83067152844649,0.078125,63,0.2751375,0.013366672184953144,-2.3407028484979517e-05,35.654666666666664,0.011175369742826194,-7.916668814199862e-06,91.65166666666667,0.05983774357005534,0.3100000000000023,-6.739585161562971e-05
S093,8637.0,8666.984375,N1,-0.09795312500000032,116.82459395672664,-278.18,410.96,689.14,5.734999999999999,31.131502765040462,656.25,650.2604166666666,20.34144209472513,7.2901956105395795,4.222920263935321,64.51432898376756,1.0764048684756364,73.60706487831179,0.027083333333333334,13,0.32465198333333334,0.032383309259293676,-1.265797218369472e-06,35.616666666666674,0.026874192494326442,-4.0902788873366685e-05,90.97033333333333,0.1599058750918454,0.5799999999999983,2.6076395962562837e-05
S093,8667.0,8696.984375,N2,0.30189062499999947,137.5173579260334,-393.29,360.25,753.54,8.645,12.009457975902695,671.875,665.0553385416666,1.1013205260239485,0.43299265454380276,0.663400200775436,64.96775078358685,0.3333913442449022,67.32013071882734,0.09375,50,0.3424592833333333,0.083098774308067,0.00012255265043203405,35.55066666666667,0.021437246921085232,-2.3194450736343118e-05,91.179,0.161994855885406,0.5100000000000051,0.00020239588823673066
S093,8697.0,8726.984375,N2,-1.4636927083333338,130.490378435855,-245.74,211.22,456.96000000000004,5.635,25.56682646227738,671.875,661.0921223958334,11.53717379271301,1.0715054432575484,1.6383794155735112,64.90064843514568,1.0219463607695536,74.1215218408257,0.017708333333333333,11,0.4753947416666667,0.06275790628047005,7.882799078450271e-05,35.52633333333333,0.018526257642119473,-1.704861573584289e-05,90.94900000000001,0.45580953624659093,1.1299999999999955,-0.0007910766034821491
S093,8727.0,8756.984375,W,2.610677083333331,176.50705210817088,-641.32,697.06,1338.38,-0.375,7.812228727929223,625.0,629.6223958333334,23.236814884407504,12.752181185977559,11.820505031203545,64.55973449677289,6.00729196112471,148.47558721890948,0.06041666666666667,19,0.30993,0.1574417146522272,-0.00024577838394595916,35.528000000000006,0.02271563338320012,6.250001695424656e-07,92.06266666666667,0.9447995672216528,2.799999999999997,0.0016850699015489102
S093,8757.0,8786.984375,N2,-1.9776458333333329,40.187553473002055,-220.43,234.19,454.62,-6.295,61.44737048891736,703.125,711.0270182291666,0.5313112709765027,0.10152910775842672,0.41327263499212397,64.52300094422934,0.1678763959417353,65.00769185258002,0.15416666666666667,93,0.14353651666666664,0.01517653884838005,-2.700935541703434e-05,35.54633333333333,0.0137800177390622,8.368057825536828e-06,94.62933333333334,0.7068612939529849,2.1099999999999994,0.0006188890567732908
S093,8787.0,8816.984375,N2,-1.1196510416666665,71.10585351134002,-599.06,357.76,956.8199999999999,-2.4050000000000002,63.335271102975405,687.5,662.6627604166666,0.895663137902427,0.3636237371545238,0.9656283710836517,64.4651333728235,0.25963928325871044,65.63535632568775,0.03958333333333333,29,0.09981894999999999,0.013117326964013413,-1.8045277030511345e-05,35.55,0.014605934866804117,2.222222825038203e-06,90.73,1.8043687723596482,5.519999999999996,-0.003238125878397861
S093,8817.0,8846.984375,N1,3.672015625,255.44938124547818,-1037.08,1051.58,2088.66,10.455,0.0,687.5,687.5,15.10051389020466,22.489161644958124,11.4206136254405,64.3871925031183,3.483871156207461,94.36100889668359,0.041666666666666664,19,0.12730168333333333,0.06487049299244654,8.448337968841676e-05,35.53233333333333,0.01382831234179327,-6.354168390344905e-06,86.76933333333334,0.7575263838456203,2.3299999999999983,-0.0007147224161030859
S093,8847.0,8876.984375,N2,-2.485119791666667,71.10851168714369,-204.01,132.15,336.15999999999997,-0.6699999999999999,18.122800496257426,687.5,688.57421875,0.8421177627795823,0.4305953162644583,0.7967354180585228,64.01851879421547,0.4057931262932996,66.73080248281148,0.0375,27,0.22781146666666663,0.010992714200728082,-1.6734691605547848e-05,35.52099999999999,0.019723082923315375,1.2673614549048413e-05,87.30133333333333,0.37983973228484547,1.5100000000000051,-0.00019076394063691896
S093,8877.0,8906.984375,N2,0.15747916666666673,71.50596158712618,-133.59,123.48,257.07,5.895,17.14342419125485,671.875,674.4140625,0.556674112662277,0.14379528272281164,0.35812584836044564,63.903175904261694,0.22066418449742276,65.3834841531101,0.14791666666666667,106,0.20307565833333333,0.007314643433432958,-1.3024067118073763e-05,35.533,0.017349351572896275,-6.597224011835678e-07,87.071,0.0583295236851248,0.21000000000000796,-3.829862150027735e-05
S093,8907.0,8936.984375,N1,0.39999479166666646,65.91033462172597,-139.27,148.62,287.89,2.955,22.445999559290087,671.875,665.1774088541666,1.807439955491837,0.6013214253601997,0.8971108865175661,64.15580120339196,0.34587611103159793,66.91786009728644,0.046875,26,0.18429675,0.004008132156940438,-5.478989767521097e-06,35.53999999999999,0.00999999999999801,-3.819445480534581e-06,88.333,0.8945432726630209,2.7700000000000102,0.0015313545820731837
S093,8937.0,8966.984375,N2,-0.3974583333333328,74.76792686023487,-137.29,132.37,269.65999999999997,1.3900000000000001,16.807651266501427,671.875,676.8717447916666,0.38307141187671806,0.12447371850002001,0.23656385310782846,64.18488575010565,0.13472037417327468,65.33758489567853,0.021875,11,0.178927,0.0011615655814460027,-8.656760160796446e-07,35.52933333333332,0.01768866554856151,3.472223164123013e-06,89.10166666666667,0.229493403439449,0.5999999999999943,-0.00036149315361684765
S093,8967.0,8996.984375,N2,-0.11701562500000028,81.5112175984064,-148.28,133.34,281.62,2.2800000000000002,21.77091844897994,664.0625,665.8284505208334,0.4313858481684349,0.04559597630883185,0.14337208778404378,64.17605948716046,0.09158984900907088,65.02307282803544,0.004166666666666667,4,0.17428304166666667,0.0014458269744096527,-1.5240865679488355e-06,35.53533333333333,0.013349989596332455,2.777778531301322e-07,89.29899999999999,0.22820093485055384,0.6700000000000017,-9.913197133571269e-05
S093,8997.0,9026.984375,N2,0.2837083333333334,79.69813433028047,-143.66,142.48,286.14,2.45,17.68198296750797,656.25,656.7789713541666,0.6972042383692171,0.2622022120425379,0.43794496221620766,64.21505441907475,0.2252649298086447,65.5286197016235,0.075,47,0.16865666666666668,0.002462199302565809,-3.3182248584594353e-06,35.541999999999994,0.012220201853214227,3.4722231641221487e-06,89.75499999999998,0.3681372026839991,1.1400000000000006,0.0006086459984391262
S093,9027.0,9056.984375,N2,0.15975520833333345,73.95273722531952,-146.52,122.39,268.91,3.96,12.87424607523156,687.5,681.591796875,0.3578712500288647,0.05589199343873463,0.15067844257077903,64.20562640536473,0.10224754958772884,65.5286197016235,0.019791666666666666,19,0.16984193333333333,0.01726838486016827,1.9373915845788804e-05,35.548,0.010770329614268317,1.0416669492364818e-06,89.903,0.232094090115768,0.6499999999999915,-0.00033947925875630935
S093,9057.0,9086.984375,N2,-0.5211250000000003,80.07365428404677,-156.25,139.5,295.75,6.390000000000001,32.47259072383928,671.875,673.5595703125,0.36116702959141894,0.045595976308831845,0.11636400473179936,64.20254393734848,0.079174740309528,64.83054835492293,0.010416666666666666,5,0.21339914166666668,0.006840572095100225,-3.7047013087839882e-06,35.56333333333334,0.015776212754933773,1.6666671187791997e-05,89.312,0.22932364320613274,0.7999999999999972,-0.00038902788330834646
S093,9087.0,9116.984375,N1,-0.04911979166666688,79.28158307383868,-223.45,524.1,747.55,-0.73,23.789369789592907,656.25,650.3011067708334,25.1773458819575,15.371737423431696,5.991898465613567,65.31979389050056,2.842853807214169,103.1746092796091,0.03958333333333333,19,0.20255243333333334,0.02077454991960649,-2.113451050740845e-05,35.570666666666675,0.016719914938647974,5.486112599315429e-06,89.22666666666667,0.3279871271186671,0.8300000000000125,0.0005715973772779377
S093,9117.0,9146.984375,N1,-0.15064583333333323,52.56019967716763,-115.34,96.93,212.27,4.985,40.663741459934535,671.875,684.3098958333334,0.44773615548730883,0.45391334678426115,0.23744288421405446,66.45622295888055,0.40001671576325276,67.56478372643548,0.015625,13,0.18517230833333334,0.005661753597305098,6.6834547209892385e-06,35.58800000000001,0.0119443152447794,4.7916679664903426e-06,89.54733333333334,0.42340629292547033,1.25,-0.0006169446118013816
S093,9147.0,9176.984375,N1,0.23006249999999984,61.178803602264296,-116.07,104.06,220.13,3.5949999999999998,29.47536772028627,656.25,665.0390625,0.4117997001644799,0.4506505713965089,0.3361066273231689,66.56162894750608,0.33937715674338687,68.8040696470783,0.013541666666666667,11,0.18843929999999995,0.0019428922666993105,-1.6499652913317276e-06,35.58666666666667,0.01639783183499871,1.395833711977447e-05,88.42800000000001,0.34916471757610257,0.9500000000000028,-0.0005403473688008267
S093,9177.0,9206.984375,N1,-0.10046354166666684,59.63949270358844,-109.77,102.44,212.20999999999998,2.225,24.831125982694804,687.5,684.1552734375,0.6066033835469066,0.5342186255930764,0.48626535251399056,66.4724302241307,0.4909379778286015,71.09149034870488,0.010416666666666666,6,0.197684425,0.009419620562654052,5.61013411733239e-06,35.59333333333335,0.012736648783027736,4.791667966489035e-06,88.40233333333332,0.37208138297361315,1.1500000000000057,0.0004189237247514445
S093,9207.0,9236.984375,N2,0.03683333333333329,61.28787533175347,-109.82,105.88,215.7,0.69,17.390369767955846,671.875,670.3776041666666,0.11172573064826602,0.43714147015646504,0.30547663122114954,66.09198518478311,0.21044239372782036,67.12674578735364,0.11041666666666666,95,0.20582991666666667,0.005737208882350568,6.122987338049955e-06,35.603333333333346,0.014907119849997754,1.5972226554964593e-05,89.05333333333333,0.2498177113194521,0.75,0.0003095139728499271
S093,9237.0,9266.984375,N2,0.39906770833333344,61.35028768452991,-111.99,112.24,224.23,2.04,13.042317785517179,671.875,669.8811848958334,0.21721684953571677,0.4801213315981238,0.21947053949980017,66.11252333728801,0.24555985668635602,67.54257916307313,0.06770833333333333,50,0.22912459166666668,0.02151255424804155,2.9853012221411732e-05,35.612,0.017397317800932476,1.520833745885812e-05,89.106,0.22508664998173483,0.6000000000000085,0.00035000009494360126
S093,9267.0,9296.984375,N1,-0.6000885416666667,57.72423078059084,-108.58,100.18,208.76,0.71,43.13886778837038,671.875,678.90625,0.4667968568398416,0.5046130513544237,0.312742961107396,66.15468312540001,0.39341527412761684,69.74955196988724,0.09270833333333334,63,0.2848952666666667,0.009030361752382289,1.3483401661079012e-05,35.626000000000005,0.013063945294843917,-5.694445989161585e-06,89.78233333333334,0.2625348654094454,0.8400000000000034,9.135419144807608e-05
S093,9297.0,9326.984375,N2,0.5550833333333335,56.379698124573665,-103.59,99.28,202.87,1.17,13.359041463890932,671.875,678.2389322916666,0.23239907830544904,0.46639570816766984,0.09668440031302304,66.1089467129631,0.25388219565975734,67.23094525588644,0.058333333333333334,48,0.2918345083333334,0.006772239611083656,2.2731063023834384e-06,35.63,0.01154700538379227,1.1111114125187805e-06,88.95966666666666,0.20483299430403068,0.7000000000000028,-0.00036607648819348917
S093,9327.0,9356.984375,N2,-0.04297395833333348,59.75410150026096,-112.66,104.79,217.45,-0.055,16.98055331880891,671.875,667.2200520833334,0.49307267184688125,0.5112917668350756,0.3597461851199167,66.1904628115212,0.4066216053821567,69.74955196988724,0.11041666666666666,81,0.36112065833333334,0.04103424823963024,6.601331109302059e-05,35.642666666666656,0.010934146311236348,2.4305562148863576e-06,88.46600000000002,0.1942609928249449,0.5499999999999972,-0.0001475694844752323
S093,9357.0,9386.984375,N2,0.01286979166666648,55.9866962986867,-97.32,91.12,188.44,1.0,19.158551737306617,671.875,672.9085286458334,0.3529390488770295,0.4330127018922193,0.3726779962499649,66.25959287675069,0.3222604649194304,67.12674578735364,0.12708333333333333,104,0.38681734166666665,0.005587377807009645,-7.677940233816258e-06,35.642666666666656,0.01093414631123635,-5.3472236727486845e-06,89.466,0.26147785119712635,0.980000000000004,0.0004422223421827093
S093,9387.0,9416.984375,N2,-0.3468489583333333,59.47328296454933,-110.03,101.27,211.3,-0.42,16.686713560116967,656.25,665.2018229166666,0.33071891388307384,0.40686251900980014,0.382617935250035,66.25104250150066,0.31522605278329846,67.12674578735364,0.12083333333333333,93,0.390564625,0.01884343328194312,2.831481128331469e-05,35.63133333333334,0.010241527663824253,6.388890621986621e-06,89.70666666666666,0.115940597817255,0.3200000000000074,0.00016631948956149394
S093,9417.0,9446.984375,N2,0.3380208333333332,54.086107834325,-111.41,112.87,224.28,-0.0050000000000000044,20.87834740384367,656.25,659.1227213541666,1.7275340560841503,0.679661757175337,1.1351848960693094,66.27466627102132,1.0337362646008268,92.44457799135652,0.013541666666666667,8,0.38811989166666666,0.0262335372099646,1.4690627465990522e-05,35.63066666666667,0.013148721948876582,-1.0416669492360623e-06,89.86500000000001,0.174942847810363,0.5699999999999932,0.00026864590620819857
S093,9447.0,9476.984375,N2,-0.013312499999999854,51.88399203758815,-99.47,106.49,205.95999999999998,-0.385,38.20028154486891,687.5,681.5022786458334,0.19878100736460938,0.3678116002301842,0.4549961366594226,66.35875930119126,0.27091943432787424,67.56478372643548,0.23541666666666666,176,0.4748076166666667,0.03409702413852352,4.822272358472319e-05,35.629000000000005,0.014224392195567615,-8.923613531796452e-06,90.21166666666666,0.2682297936885873,0.9100000000000108,-0.00035427092943547103
S093,9477.0,9506.984375,N2,0.2080885416666667,51.936461063039104,-98.43,102.6,201.03,-0.585,18.33615649767563,671.875,665.8772786458334,0.11632669960790026,0.31598061649411346,0.44456595561163803,66.37238903572967,0.22064003056159176,67.56478372643548,0.21354166666666666,158,0.5171403833333333,0.048103860212250354,8.011465714915835e-06,35.622666666666674,0.012092238098145523,-5.486112599314615e-06,89.24066666666666,0.13033120202861057,0.46999999999999886,-0.00023118061826731372
S093,9507.0,9536.984375,N2,-0.14845833333333372,55.90367572812123,-99.61,96.54,196.15,-2.05,18.82984679366137,671.875,669.8079427083334,0.20915463112783858,0.4838976142136544,0.541021250096108,66.37492138520356,0.2776738639375547,67.47592163134935,0.25625,150,0.513774325,0.06948734014902314,9.354083418533912e-05,35.64133333333333,0.014772346537438794,1.2013892147864082e-05,88.87266666666666,0.23060692868072113,0.7999999999999972,6.625001797146958e-05
S093,9537.0,9566.984375,N2,-0.04688541666666678,48.16399651502531,-103.42,129.81,233.23000000000002,-1.08,21.749004938059322,656.25,648.4944661458334,1.1007804799007637,0.4955257712072658,1.31167136540878,66.41944512265863,0.5072569350343399,71.76350047203663,0.036458333333333336,21,0.5283575166666667,0.05173465745464758,6.772035387379391e-05,35.65166666666666,0.011855612829184865,5.902779379012928e-07,90.11899999999999,0.3770530466658501,1.1199999999999903,0.0005962848839748489
S093,9567.0,9596.984375,W,0.08829166666666668,47.52174027702055,-96.93,98.25,195.18,0.22999999999999998,36.732123354203175,687.5,682.51953125,0.15419129870787854,0.04559597630883184,0.3456936841538892,66.44112374037807,0.18817398625537102,67.0,0.007291666666666667,6,0.5732280333333333,0.03209703021826509,1.5719260774539064e-05,35.643666666666654,0.012775845264489282,-3.2291675426343486e-06,90.28633333333333,0.32163626799366035,0.9000000000000057,-0.0005040626367357443
S093,9597.0,9626.984375,N1,-0.11925520833333343,46.87173069062918,-91.32,114.03,205.35,0.5449999999999999,25.488186410181022,671.875,671.0042317708334,0.9528141569625911,0.3732365946093115,0.8019480405376787,66.50687243146461,0.5911523082575747,71.09149034870488,0.03125,16,0.533748825,0.025771876273262974,-1.440091341170612e-05,35.629000000000005,0.015989579940281575,-1.0069447175949868e-06,89.33399999999999,0.3627818444556816,1.0300000000000011,-0.0005091668047869998
S093,9627.0,9656.984375,N2,-0.04538020833333327,52.90924513929119,-129.39,106.93,236.32,-0.735,30.104402455393167,671.875,672.5667317708334,0.5270205413849318,0.5071708018234313,0.6206934965558014,66.49623350944825,0.3871529287845873,69.34695379034324,0.020833333333333332,14,0.6763352583333334,0.15765612055877057,0.00023839333962492938,35.632,0.013999999999999449,2.083333898463539e-07,89.13000000000001,0.2989983277545212,0.8400000000000034,0.0004640973481166856
S093,9657.0,9686.984375,N2,0.055796874999999704,56.037828389535136,-108.35,116.01,224.36,0.42000000000000004,16.836853159791314,671.875,663.4847005208334,0.9470692182552798,0.5790383176128233,0.9110141774951815,66.44318629662129,0.540904876857922,69.79971346646059,0.04375,29,0.8132634000000001,0.054453856205261844,4.575959357627864e-05,35.643666666666654,0.011967548714009114,5.590279294237347e-06,89.66833333333332,0.12775192975276534,0.37000000000000455,3.440973155645825e-05
S093,9687.0,9716.984375,W,-0.08284375000000001,56.928801039988414,-188.91,229.47,418.38,-1.42,21.707230523445862,640.625,647.5423177083334,29.301214049050323,13.59104614712436,16.96852168226794,65.860133242242,1.3174056503077523,74.46475676452586,0.03854166666666667,18,0.6384679666666667,0.16086096010571432,-0.0002564145760673221,35.652333333333324,0.008825468196580729,-2.430556214885642e-07,90.34266666666666,0.3666054494351594,1.2600000000000051,0.000600972385246414
S093,9717.0,9746.984375,W,0.3370052083333333,143.75037434965742,-887.7,803.92,1691.62,2.1550000000000002,24.46630559398442,593.75,616.2841796875,32.16677648337796,34.516213590876994,20.13854745879156,65.65026042971674,12.19108166558802,196.46119209655632,0.059375,21,0.4322657083333333,0.21902111223043452,-0.00023847012349992493,35.632666666666665,0.021281186266015256,-3.208334203649445e-05,92.27666666666667,0.9343601494546346,3.1699999999999875,0.001671944897988523
S093,9747.0,9776.984375,W,1.3387135416666662,201.49644709791934,-767.82,726.47,1494.29,3.105,3.2319727365038413,671.875,671.1751302083334,26.5632577506297,12.811713221100534,19.21213255540334,66.24970256415612,7.6265595231956524,129.1394595001853,0.05625,23,0.5621145333333334,0.10144883579321592,-0.00013788757950509425,35.58400000000001,0.013808210118139472,-1.4513892826035107e-05,93.98599999999998,0.3580372420107539,1.5400000000000063,-0.0004947918008875329
S093,9777.0,9806.984375,W,5.251203124999999,238.57393011710488,-1045.39,947.47,1992.8600000000001,-1.93,0.0,671.875,671.875,20.28053251063518,17.420616048184513,30.78648686416656,66.57402297703551,9.66724959092034,132.68760303811354,0.08958333333333333,35,0.27211630833333333,0.10228458177178967,4.6985641434907066e-05,35.56733333333333,0.017688665548563826,-5.277779209467051e-06,89.25066666666667,2.4485559463124837,8.0,-0.004372501186116857
S093,9807.0,9836.984375,W,-7.014932291666668,151.30607438062287,-1095.48,911.19,2006.67,-1.87,23.43541453937968,671.875,661.572265625,7.838998117939279,16.570141188084534,13.874933331609101,65.47349501429798,3.3468879494286896,89.46507698538016,0.051041666666666666,16,0.22444863333333334,0.012400430186713505,5.7727893263859925e-06,35.50966666666667,0.05338435059911211,-8.225696675807483e-05,80.50033333333334,1.9955658902231768,6.179999999999993,-0.0034729523309875027
S093,9837.0,9866.984375,W,-2.4969479166666657,175.07752701320575,-896.95,517.17,1414.12,0.035,13.953561678939456,593.75,592.2037760416666,27.250447542674262,30.95769036386485,21.652374192215554,67.53262367922066,10.804269480199192,159.7310239120754,0.06875,24,0.200801675,0.04079401229432299,3.326216505592586e-05,35.28733333333333,0.06582468297598493,-8.472224520460168e-05,82.72633333333333,2.620992793241185,8.650000000000006,0.004700591552894847
S093,9867.0,9896.984375,W,4.331963541666666,248.41092318485263,-851.51,1005.52,1857.03,8.035,0.0,593.75,593.75,20.106396654172784,19.23947211662495,18.742942653317687,67.31368799675764,11.659389632759485,195.4149431338351,0.09375,37,0.09833509166666667,0.0664426265334732,-9.716580174853563e-05,35.26733333333333,0.019821424996425398,2.1666672544128694e-05,90.98800000000001,1.1696392606269685,4.299999999999997,0.0018122227138190963
S093,9897.0,9926.984375,W,-1.945072916666666,226.38631818221444,-822.74,870.08,1692.8200000000002,-7.865,14.891074961139104,593.75,587.3697916666666,20.750312811397166,30.47631706247834,29.539194900559895,66.33810806470018,8.489282560744499,163.93596310755,0.078125,41,0.029988499999999994,0.020135701626712688,-2.8089369164867934e-05,35.27733333333334,0.016719914938645546,1.1805558758018678e-06,87.90199999999999,2.224657876318663,8.719999999999999,-0.003841945486638856
S093,9927.0,9956.984375,W,-2.5295833333333335,284.2882652090226,-1594.39,1629.2,3223.59,2.225,0.0,562.5,562.5,17.800002651714454,27.6923913255318,29.376617863248544,66.18659728015088,10.300584877008623,125.39936203984452,0.09270833333333334,43,0.059443091666666656,0.02123209108637043,3.395534883771399e-05,35.18166666666666,0.08748650689614429,-0.00011246530828594708,79.08033333333333,1.002348852556943,4.019999999999996,-0.0007953127157423814
S093,9957.0,9986.984375,W,3.7291562500000013,101.04931265907462,-531.42,647.54,1178.96,4.54,7.011513029603128,562.5,562.2802734375,16.969779997387185,20.59772175491881,24.840304858087155,67.78738137321871,10.815454292899627,154.30489298787643,0.090625,43,0.07751735000000001,0.01188512747838659,-2.2949884697776885e-06,35.155333333333324,0.008055363982395505,7.222224181374653e-06,80.94066666666666,0.6241470624424635,2.4299999999999926,6.277779480734426e-05
S093,9987.0,10016.984375,W,-1.458864583333334,159.18171644565788,-610.38,584.5,1194.88,-0.025,40.6747334249658,546.875,571.1100260416666,37.62015402012947,28.43352717594021,22.639923619417438,67.4137366378376,15.657153184969696,174.40470177148322,0.11458333333333333,37,0.06166361666666667,0.024481432232470703,-2.7520850347452894e-05,35.15466666666666,0.012840906856170996,-5.5555570625968144e-06,88.71566666666668,2.839839999405288,9.170000000000002,0.004996147188624998
S093,10017.0,10046.984375,W,-2.007557291666667,196.20017311494723,-933.25,943.89,1877.1399999999999,1.605,0.0,640.625,640.625,26.881313131239,31.095650748017935,30.041578825576615,68.83721733543874,19.743854770035156,174.7483905505284,0.12291666666666666,41,0.044582425,0.017481718751151874,-1.5482743566282435e-05,35.157,0.015088627063674576,-2.604167373091957e-06,94.72666666666667,1.5549883886669018,4.799999999999997,0.0027970146476276707
S093,10047.0,10076.984375,W,2.010520833333335,167.83063274672546,-883.42,667.86,1551.28,3.08,0.0,640.625,640.625,25.071072390105904,21.880839597534997,14.827387582647244,64.90656792348224,9.61563087171368,142.42892964563063,0.10104166666666667,38,0.048788525,0.005353008487387412,4.1940373790248945e-06,35.157999999999994,0.019561867668160992,8.402780057178123e-06,94.87166666666667,1.5228527688373412,5.1000000000000085,-0.0027342021305886855
S093,10077.0,10106.984375,W,-3.662578125000002,137.03153470502215,-567.59,427.16,994.75,3.46,12.334294835835731,625.0,622.5667317708334,21.822684962970428,14.275534163422455,17.23171053242434,66.20658854110297,10.97118044768925,180.84800247721842,0.0625,26,0.046365116666666664,0.008461177964861366,-1.545464828956387e-06,35.144999999999996,0.03694590640382149,-3.29513978275276e-05,90.58499999999998,0.4181526834383198,1.5900000000000034,-0.0005456598702419369
S093,10107.0,10136.984375,W,4.523723958333333,198.1729748959249,-641.26,663.31,1304.57,-4.71,22.065360715009394,609.375,622.607421875,21.168450958259136,15.734099116250666,15.628990601514298,65.53034039501374,13.389731303513798,218.2521477557552,0.08541666666666667,31,0.05603754166666666,0.0069631116929332595,9.322267068757342e-06,35.082666666666675,0.03285659074760502,-3.3402786838865015e-05,91.46133333333333,0.32093336103032566,1.25,0.00022097228216478877
S093,10137.0,10166.984375,W,-0.0692343750000001,90.75490003981457,-786.92,583.52,1370.44,1.73,46.961606162966696,640.625,651.6682942708334,16.663090762220556,4.567870578646454,5.595118838568877,64.25701523171483,7.186108834260315,139.5134402127623,0.026041666666666668,10,0.06522935,0.007705399502567447,5.517061392432017e-06,35.01533333333334,0.03106266068592487,-2.4513895538708427e-05,92.25433333333334,0.5500586837379775,1.6000000000000085,0.0009417710888050925
S093,10167.0,10196.984375,W,0.6422031250000001,178.04608604992788,-1232.87,790.22,2023.09,-0.215,14.653129673850843,656.25,657.080078125,16.039986350037054,15.137432870699396,11.909037294039905,65.48605559525738,9.437042575662085,129.08136968594656,0.08645833333333333,23,0.21512871666666664,0.10469194878238276,7.067597012694503e-05,35.01499999999999,0.01627882059609996,-1.0069447175953311e-06,92.59933333333335,0.4135854070066896,1.4200000000000017,0.0003188889753930621
S093,10197.0,10226.984375,W,1.263817708333333,226.88682092656833,-801.43,751.37,1552.8,-1.6549999999999998,0.0,640.625,640.625,24.78540972776653,22.176869421232315,20.545654167364216,68.7642691130362,16.829174866382107,175.22842235208304,0.09895833333333333,38,0.29236835833333336,0.14379475057008606,0.0002021302751004435,34.873000000000005,0.12083459769453476,-0.00020586811140085526,93.95166666666667,0.32297660734004985,1.3299999999999983,-0.00014829865133969504
S093,10227.0,10256.984375,W,-1.7009895833333326,123.64505678832208,-620.85,485.85,1106.7,-2.865,20.827426072902973,687.5,673.7141927083334,19.28884968634009,24.743776486752964,13.762675817577126,65.18895551933862,9.008680719044866,171.8429515575195,0.053125,17,0.5539661583333334,0.15540444467142264,0.00013026164926802547,34.813999999999986,0.0993512288130679,0.00015375004170736767,90.25066666666666,0.9929885307606646,3.2900000000000063,-0.0015902087647050697
S093,10257.0,10286.984375,W,0.43059375,172.45478813077588,-885.16,786.77,1671.9299999999998,-5.475,22.753271731660142,640.625,656.8196614583334,24.99299346261312,24.02288114193164,10.773983058159132,64.96822378429543,8.751291713058247,108.8577052853862,0.121875,36,0.7718625416666666,0.114241779465446,-0.0001334676978807774,34.913999999999994,0.02026491220476134,2.6944451753595423e-05,88.34766666666665,0.4237191155575698,1.4399999999999977,-0.00043593761825564835
S093,10287.0,10316.984375,W,-0.699333333333334,128.93462932041592,-590.73,463.65,1054.38,-0.79,6.8119463681050885,625.0,627.83203125,23.93429044972082,13.213471496660352,11.606534767343591,63.765903036681706,6.873729088578712,183.96738841436002,0.023958333333333335,15,0.849155525,0.06687455433271593,1.2557783354433374e-06,34.92366666666667,0.02258071940592035,1.8923616244471842e-05,93.864,1.9224179219583513,6.109999999999999,0.003180903640653116
S093,10317.0,10346.984375,W,-0.3938854166666664,118.04629446397023,-580.09,547.94,1128.0300000000002,2.29,41.74065696148527,734.375,706.9010416666666,8.418288248802755,2.9378922610436216,4.375232012697219,62.541386405100155,1.2722957706263687,73.76991256603196,0.09375,34,0.9587215166666668,0.2196791319675883,0.00031632932322301515,34.962,0.015143755588799969,1.0416669492369085e-05,94.648,0.935472785992907,3.1699999999999875,-0.001537222639220549
S093,10347.0,10376.984375,W,0.35698437500000113,97.79166063318277,-451.47,435.09,886.56,0.785,17.254937931778077,718.75,706.7708333333334,16.857714880678934,15.957572837351393,8.634932887534344,63.45790262535408,4.986733505787843,104.31203190428226,0.08125,25,1.1280879666666666,0.10984954937807236,1.1699991889103712e-05,34.980333333333334,0.01277584526449189,7.118057486452068e-06,89.38000000000001,1.5485649270641946,4.960000000000008,-0.002772361863162398
S093,10377.0,10406.984375,W,-0.04240104166666659,50.078074493896516,-94.81,100.74,195.55,-0.395,33.95567713921546,687.5,693.6197916666666,0.6538074584373701,0.37183852528871847,0.49986868935473666,62.796601640657094,0.37548508797256286,63.694583757176716,0.20729166666666668,114,1.2558179166666668,0.09925016658563544,4.7318880457595574e-05,35.0,0.014832396974190611,5.486112599313899e-06,86.40466666666667,0.30575298672112533,1.0699999999999932,-0.00038027788093475515
S093,10407.0,10436.984375,W,-0.2211250000000004,73.60885151345731,-288.83,271.1,559.9300000000001,-3.675,11.569824533578123,671.875,675.1871744791666,7.949579609779515,5.000899984107027,5.048284117008636,63.235212123592284,5.826987301995687,155.3673067282818,0.041666666666666664,19,1.1416172416666666,0.08789005779153823,-0.00011635877093065613,35.03033333333333,0.016017351702311007,1.1631947599811858e-05,86.76133333333333,0.529916555275975,1.519999999999996,0.0008832641284896181
S093,10437.0,10466.984375,W,0.24841145833333347,70.32257015685731,-371.71,290.49,662.2,0.6699999999999999,13.100252182387953,687.5,686.1490885416666,9.785352352354117,15.276190475465679,12.796456376275836,63.42785482196621,4.6664743311816865,149.25481566770299,0.042708333333333334,14,0.9084459916666667,0.09261927019367117,4.882097027478586e-06,35.05366666666667,0.018345450541089655,1.4131948277981205e-05,88.04099999999998,0.18751622152052141,0.5,-8.315974478074605e-05
S093,10467.0,10496.984375,W,-0.2178645833333332,92.39584692101965,-344.03,412.02,756.05,-4.01,13.238213817196694,703.125,696.4274088541666,28.56094389679798,12.385088086123638,9.572297484055952,64.78219364159285,8.157287865246595,113.57376457615553,0.096875,28,1.095877525,0.17411247912498798,-0.00012186448162556461,35.04533333333333,0.014313940369055372,-1.020833610252098e-05,87.73566666666666,0.19446822076855896,0.7800000000000011,0.00021711811445261303
S093,10497.0,10526.984375,W,0.3172812499999998,100.40553413794015,-362.33,435.25,797.5799999999999,1.415,22.956130698088167,703.125,693.5791015625,3.661898977752375,1.9826392233410888,1.1217424867576435,63.93923653931161,0.9332233226622273,70.21395872616783,0.05625,17,1.0973736166666666,0.1640661157926474,0.00022455538773746402,35.00366666666667,0.017026123718828983,-1.86458383913402e-05,89.937,0.7417688319146338,2.489999999999995,0.0013096878552755686
S093,10527.0,10556.984375,W,-0.4899166666666667,56.039902549929145,-106.18,101.32,207.5,1.7799999999999998,19.513602867458804,703.125,702.294921875,0.601213147114972,0.38061621956666825,0.47999927661982533,63.95947481951355,0.4259273944526355,65.26101439603893,0.08541666666666667,63,0.9259411416666666,0.09550613109379383,-0.0001692956941448823,34.98500000000001,0.014548768561864068,-1.309028132874497e-05,89.87433333333334,0.7366214918275353,2.3800000000000097,-0.0012880211827314427
S093,10557.0,10586.984375,N1,-0.07318749999999981,59.686279271515524,-110.8,106.53,217.32999999999998,1.53,17.43640235050056,703.125,700.0569661458334,0.5129190360086082,0.16232629604869594,0.29720193985833193,63.92100050726687,0.28037620557728615,64.79197481170026,0.09791666666666667,71,0.9074933333333333,0.0730108156306691,-8.420699549885947e-05,34.96733333333334,0.011234866364234344,-7.083335254810597e-06,86.35766666666669,0.8186805780576997,2.680000000000007,-0.0013907989883894826
S093,10587.0,10616.984375,W,0.5160937500000002,74.12065544218231,-393.1,250.76,643.86,2.505,22.489577752342786,671.875,666.5934244791666,17.26254777127512,16.278579435488222,9.82988088227534,63.94474741291412,4.614798113888248,105.89145385724005,0.04375,14,0.9018787666666667,0.13842374826203854,0.00018562650738566285,34.904666666666664,0.06706878724281685,-0.00010965280752300571,85.954,0.17738094598913448,0.730000000000004,0.00018444449447821692
S093,10617.0,10646.984375,W,0.036776041666666495,43.320694135566924,-84.87,92.53,177.4,-1.8,28.099810540513502,656.25,654.1910807291666,1.4709557904641457,1.113036309555483,0.6301144902581859,64.01352382358169,0.6406515077682665,67.83067152844649,0.07708333333333334,38,1.2946202583333333,0.15278720891998213,0.00017639954980456534,34.766666666666666,0.028323527714998447,-4.673612378909793e-05,88.07400000000001,0.8175230883589779,2.6300000000000097,0.0014660420643560297
S093,10647.0,10676.984375,N1,-0.4858177083333332,38.31683644107622,-92.97,73.1,166.07,-0.95,18.43346151027988,687.5,689.4124348958334,0.623108248131004,0.6129958310534329,0.5108958210149654,64.10208499115828,0.38836166947857603,65.46754921333164,0.08854166666666667,57,1.2873935500000002,0.037068265373463326,-2.588134382632118e-07,34.702666666666666,0.022201101073795276,-3.180556418336681e-05,89.30633333333334,0.2154140715511003,0.6600000000000108,0.00022545145004650884
S093,10677.0,10706.984375,N2,0.10513020833333328,38.711761561729695,-78.86,72.07,150.93,-1.7850000000000001,32.59027300834463,671.875,683.7076822916666,0.5972121284676735,0.391742844985358,0.316500436084481,64.26288721311919,0.3477216807406559,65.7875368135941,0.017708333333333333,13,1.6561282333333334,0.09206295977398053,4.2822374029506834e-05,34.679,0.011647603473104362,-2.9513896895050057e-06,87.931,0.5654281563558713,1.7999999999999972,-0.0009892711016902943
S093,10707.0,10736.984375,N2,0.13232291666666676,40.76116572000926,-80.11,90.66,170.76999999999998,-2.2800000000000002,13.025549988006834,671.875,676.3102213541666,3.0190797712101873,2.692420398854285,1.7590758577343641,64.31450643730423,1.538563743437665,86.86195945291587,0.011458333333333333,1,1.834303275,0.18467836573116167,8.57299501220568e-05,34.67533333333333,0.013097921802927088,-1.138889197832465e-05,87.83133333333333,0.2751209834882745,0.9500000000000028,0.000491111244333562
S093,10737.0,10766.984375,N1,-0.008828125000000454,74.5973108815735,-333.94,434.43,768.37,-2.175,11.63434182635162,671.875,677.7506510416666,15.77384655136602,12.957652715244722,7.565536580441602,64.00234769583307,2.728039177692629,87.83507272155013,0.03229166666666667,9,1.4795245916666668,0.2271301859604786,-0.0003505913127689108,34.72833333333334,0.02978627573602079,8.85416906851292e-06,88.15633333333334,0.16985255043386477,0.47999999999998977,-0.00023906256484987158
S093,10767.0,10796.984375,N2,-0.11619791666666644,38.55038628511603,-101.19,102.58,203.76999999999998,-2.82,38.86394902576236,671.875,661.4990234375,1.4792180155406436,0.5141698743822145,0.5414101956926929,64.17301853039095,0.5028512352253965,67.21606950722423,0.042708333333333334,22,1.4559722333333334,0.2631691997080881,0.0003563625537007795,34.712999999999994,0.018101565309846326,-2.1979172628897658e-05,87.86899999999999,0.0515331608449057,0.1700000000000017,2.4652784465277785e-06
S093,10797.0,10826.984375,N2,-0.09240625000000004,38.34572162876576,-71.08,77.82,148.89999999999998,-3.685,16.24047016220625,671.875,669.9625651041666,0.5138183838645929,0.18292746266545717,0.4330127018922193,64.22931771611238,0.41951844142103606,64.96922348312314,0.027083333333333334,22,1.7487908666666667,0.16186848436585452,-3.310929630786034e-05,34.68666666666666,0.01867856763482988,-2.000000542534977e-05,88.61166666666666,0.41419064316916737,1.1699999999999875,0.0006901737983327351
S093,10827.0,10856.984375,N2,0.6822656249999999,42.61128263419827,-106.29,113.55,219.84,-3.13,11.813578341701024,656.25,661.3362630208334,2.7235820724838744,0.5469454319724734,0.8874119674649424,64.21349730959619,0.5679758831295468,70.04284403134984,0.03333333333333333,21,1.5128694583333333,0.054283560387545185,2.5908038929047018e-05,34.684666666666665,0.020450482200238033,-2.43750066121458e-05,89.55933333333334,0.1710932169575674,0.5799999999999983,0.00028756952245267194
S093,10857.0,10886.984375,N2,-0.5477708333333334,38.76127682324611,-212.19,89.37,301.56,-3.25,57.25167872999872,671.875,684.4807942708334,1.1171946629529501,1.0735531081607779,0.5652853492190175,63.94549726451805,0.48460079121653626,66.76825593049439,0.11354166666666667,72,1.759472375,0.08042602103113793,1.2723325283020097e-05,34.706333333333326,0.018162843634433358,4.826390198131541e-06,89.87366666666667,0.10634796137627105,0.28000000000000114,0.00018545143919581077
S093,10887.0,10916.984375,N2,-0.1084843750000001,35.80642582497073,-90.86,76.78,167.64,-4.995,41.43625447846849,671.875,660.3352864583334,0.46580556715102595,0.1440968038815882,0.26338928400858597,64.05459611111023,0.24868060347110577,65.06919393998976,0.015625,12,1.685323075,0.06514236431989587,3.354651192125431e-05,34.719,0.018138357147216188,-9.375002543136749e-07,89.96066666666665,0.11764164039809662,0.4399999999999977,-0.00013527781447423353
S093,10917.0,10946.984375,N2,0.3378333333333333,33.75826272919055,-64.91,73.79,138.7,-3.3099999999999996,26.109916262872844,656.25,662.79296875,0.6072335949936308,0.5753584329693003,0.4254083006033406,63.990271119014274,0.4625495811783367,67.7421582177598,0.04583333333333333,22,1.9809047333333332,0.1390370948144615,3.1653542440739594e-05,34.70366666666667,0.0168292074151521,-7.881946582559428e-06,89.49066666666667,0.04350734293068963,0.1799999999999926,-3.118056401382222e-05
S093,10947.0,10976.984375,N2,-0.3657708333333332,34.888497248221356,-65.45,71.33,136.78,-4.95,13.16921627533001,656.25,657.0556640625,0.47103148485236335,0.4921420283227868,0.12059963032005248,63.96037977598323,0.21415083157196724,65.03076195155643,0.004166666666666667,3,1.9179494083333333,0.16036680164555545,-0.0001867920196375921,34.69733333333333,0.01691810338726606,8.263891130613403e-06,89.75666666666666,0.18746258886034348,0.6800000000000068,0.00032826397793619147
S093,10977.0,11006.984375,N2,0.11954166666666666,37.382834534191815,-129.65,161.3,290.95000000000005,-3.16,21.756088155024965,671.875,666.1295572916666,0.7305039819934819,0.41402810391727435,0.34921632254314167,64.01446588732355,0.34494998771246643,67.84541251993387,0.025,16,1.79799575,0.05525684943730958,-7.752433135968189e-05,34.69233333333333,0.015849991237292412,-1.6354171103020346e-05,90.31766666666665,0.07012766136760226,0.21000000000000796,-5.392362573883225e-05
S093,11007.0,11036.984375,N2,-0.14909374999999997,39.60208020119706,-118.81,109.59,228.4,-4.074999999999999,42.96889719311713,656.25,653.9143880208334,0.7215066400229606,0.4699106002445808,0.28979870588143686,63.97573353921994,0.32483552565653206,67.4166151627327,0.017708333333333333,10,2.0834963416666668,0.13313508139232724,-3.9579941075287875e-05,34.68299999999999,0.018645821694596984,-1.1354169746682242e-05,90.03466666666668,0.10569557964056661,0.3299999999999983,-0.0001586805986004211
S093,11037.0,11066.984375,N2,-0.27782812500000004,36.85619867615047,-103.69,113.81,217.5,-4.535,41.65712803694853,656.25,676.6845703125,0.9716265536317039,0.495657137811904,0.24227429000457773,63.97910044414389,0.30570632663950054,67.56478372643548,0.014583333333333334,12,2.1546078250000003,0.16682989083907504,0.0002473153780694927,34.687999999999995,0.016613247725837176,-2.77777853129869e-06,89.80466666666668,0.11898832809238837,0.4399999999999977,0.00014430559470095358
S093,11067.0,11096.984375,N2,0.27063020833333373,50.37296754965988,-238.43,300.67,539.1,-3.4299999999999997,20.958775517556024,671.875,676.2776692708334,14.094398389864757,1.9862349113999302,3.0992184764760546,63.39995854191617,0.8006810954707659,66.46803743153546,0.03854166666666667,17,2.158946125,0.09573044551713616,-0.0001250223401210775,34.69566666666666,0.03441737287411123,4.836806867623469e-05,90.35566666666666,0.09376151781100059,0.3300000000000125,0.0001285069793041967
S093,11097.0,11126.984375,N2,0.1401197916666668,28.018234637914524,-74.89,69.01,143.9,-2.71,15.41897043421843,671.875,668.1640625,1.1693347467684347,0.4079877364033821,0.6782201994108469,62.66081608681217,0.3404076008276526,63.85138996137829,0.17291666666666666,74,1.8335107166666667,0.07416743371837617,-0.00013301895058022748,34.72233333333333,0.020765890836229553,-1.5590282006911358e-05,90.44900000000001,0.08304015093114016,0.3199999999999932,-9.038196896212236e-05
S093,11127.0,11156.984375,N2,-0.02596354166666665,34.19122013441347,-158.56,124.15,282.71000000000004,-4.205,22.246126556893273,656.25,667.1305338541666,6.443564346258599,2.4201463364702875,2.72251096824645,62.88540974319696,1.1347869536742723,77.52418977325722,0.023958333333333335,13,2.0350989916666666,0.15663506513131598,8.044145649996104e-05,34.73433333333333,0.017065234314894127,-1.2048614379506441e-05,89.65433333333334,0.18995935237717285,0.6999999999999886,-0.00016364587772511557
S093,11157.0,11186.984375,N2,0.06410416666666671,34.724314598011134,-65.75,80.2,145.95,-6.035,25.839363132760496,656.25,663.2486979166666,0.6847474886875372,0.4050128062961576,0.4010403138505321,63.15911868411271,0.35163007953152536,64.03905058634146,0.036458333333333336,24,2.2668359916666665,0.17764427510629663,-7.406102920492356e-06,34.718333333333334,0.012133516482132532,-2.9513896895039694e-06,89.82966666666667,0.056064447042865624,0.18000000000000682,9.440974783250482e-05
S093,11187.0,11216.984375,N2,-0.001812499999999891,50.15172116673242,-410.32,212.71,623.03,-2.745,24.06547885747974,687.5,673.9664713541666,5.08242435520578,2.371304690987643,2.4147837492321242,63.334484453293435,1.1516997737541737,87.89197915623473,0.028125,16,2.085048025,0.051011329491669886,2.015063263634795e-06,34.70166666666667,0.02745703714694838,-9.687502627903319e-06,89.35933333333334,0.8884816011350787,2.3999999999999915,-0.0013456948094875227
S093,11217.0,11246.984375,N1,-1.2458072916666671,103.38782920984113,-599.89,330.99,930.88,-1.305,14.166852164456504,656.25,662.5651041666666,13.988616054608972,10.082575675305586,13.579104658751744,63.689538663707054,3.174599418955044,97.27281223445738,0.059375,26,1.96946615,0.20241242539440152,5.209269078035232e-05,34.70399999999999,0.04424176006143369,5.256945870482401e-05,87.68133333333334,0.05420537078760927,0.15000000000000568,-9.284724740864984e-05
S093,11247.0,11276.984375,N1,0.5575677083333337,60.97729628611953,-272.2,212.57,484.77,0.825,22.6839210809692,687.5,669.2708333333334,5.041492765595876,2.528990761318304,1.2010990337557053,64.04380008263509,0.9151526150335187,72.26340706055866,0.05416666666666667,25,2.267999625,0.22675332469631918,-7.598321136697361e-05,34.772,0.01814754345175516,-8.402780057176891e-06,88.497,0.8223346845009831,2.480000000000004,0.0013875350986152048
S093,11277.0,11306.984375,W,1.1726874999999999,84.99398563750366,-451.34,363.29,814.63,3.2800000000000002,13.977071511273142,671.875,676.7985026041666,13.014574995995408,12.724205891983878,13.05312595596251,64.87118482072411,6.281189241599483,130.01538370516005,0.06875,37,2.1122712666666668,0.22844544537477407,-0.00036950045440007994,34.754000000000005,0.014966629547097536,-1.097222519863029e-05,89.55866666666667,0.2928450481435896,0.8799999999999955,-0.0005095140271034114
S093,11307.0,11336.984375,N1,-0.38374479166666686,108.76765785277632,-806.33,528.23,1334.56,2.78,235.9840936526696,671.875,765.13671875,7.462579607685379,7.176262652643243,7.828030119739931,64.20213695915653,3.936631581827343,116.64047325006874,0.030208333333333334,13,2.0371986916666667,0.29024457397767134,-0.0003962938069373391,34.73133333333333,0.014544949486181492,-1.2361114464278438e-05,88.51566666666668,0.36198235070542045,1.230000000000004,-0.0005258681982064341
S093,11337.0,11366.984375,N2,-0.11755208333333327,49.90909930759324,-207.72,175.41,383.13,1.3900000000000001,29.479879094334123,671.875,674.3815104166666,2.50106205739293,0.8890239019643335,0.676405911119368,63.95831563194776,0.5138772786183637,66.91038783328041,0.19270833333333334,96,1.9964737416666667,0.190485933585243,0.00022617972780483063,34.720666666666666,0.0214372469210843,-2.0138894351912447e-05,87.65133333333333,0.16290556228140995,0.539999999999992,4.250001152886664e-05
S093,11367.0,11396.984375,N2,-0.16309895833333377,60.735516358417016,-210.54,206.87,417.40999999999997,0.7949999999999999,54.99216621173187,671.875,653.1575520833334,4.576834289044667,1.3498613451172188,1.2940015858439535,63.2035229191258,0.8466250320369283,70.79548008171143,0.075,36,2.0139003,0.14012623495575932,-0.00016920964399133137,34.67799999999999,0.024000000000001322,-3.326389791230076e-05,88.772,0.41632839602089766,1.2800000000000011,0.0005640973752434281
S093,11397.0,11426.984375,N2,0.3091249999999994,67.75039172676574,-528.27,387.22,915.49,0.745,15.30418810511873,671.875,669.2057291666666,1.6070104663283584,1.2567487090537763,1.1651105693833907,63.049759484781184,0.6783218837034589,69.70652767137379,0.075,47,2.1546720333333336,0.1585763910315747,-3.8825293518146036e-05,34.615333333333325,0.0328362942827316,-5.548612616268402e-05,88.91066666666666,0.18629606067284965,0.5900000000000034,-0.00018486116125790894
S093,11427.0,11456.984375,N2,0.1435416666666667,31.310335752856393,-103.93,91.26,195.19,-0.735,19.263915805053728,671.875,668.0582682291666,0.5081785539634012,0.14728076338710663,0.254465329989503,62.913562890828416,0.254665234723276,64.00781202322104,0.06875,44,2.1843333,0.11780038066078848,9.991079316156498e-05,34.54633333333333,0.01642829537380159,-1.7673615905385234e-05,87.71233333333333,0.6094625136590056,1.7000000000000028,-0.001073854457968329
S093,11457.0,11486.984375,N2,0.024348958333333216,31.91094113396393,-60.57,84.24,144.81,-2.65,40.84371720195719,671.875,654.150390625,4.988987438320748,2.317252764215395,2.3669270690074082,63.02823573869502,1.5175499994466302,83.3966426182733,0.023958333333333335,10,2.4137035166666663,0.14284698620289377,6.603865333079788e-05,34.513999999999996,0.017999999999999843,-5.138890282901788e-06,87.93800000000002,0.34763390705357394,1.0999999999999943,0.0005968751619127488
S093,11487.0,11516.984375,N2,-0.20806770833333338,50.520401207762916,-297.99,251.31,549.3,-2.58,13.654774461725317,656.25,657.91015625,2.8480134401992476,0.4780557774871976,1.8443042952108886,62.32675013446162,0.7254086271809322,68.5054742338158,0.03958333333333333,21,2.2848355583333335,0.11598234661366902,-0.00020056660627349344,34.44866666666667,0.028720878971385082,-4.5555567913295594e-05,88.45133333333334,0.45428136166428285,1.3799999999999955,0.0006294446151922252
S093,11517.0,11546.984375,N1,0.44067187499999994,44.735507750143704,-200.09,291.23,491.32000000000005,-2.7800000000000002,36.751611132205056,671.875,669.8323567708334,17.496197472544253,3.7094671429162163,6.280652611172044,62.698621507637114,2.399988411513229,104.54185764563398,0.071875,29,2.3771494666666664,0.10240678294925368,0.00012565812696889298,34.425333333333334,0.018390818965512562,1.118055858847689e-05,89.27266666666668,0.08532031150643699,0.25,-0.00010791669594094196
S093,11547.0,11576.984375,N2,-0.2687604166666668,42.22612359646889,-196.44,192.65,389.09000000000003,-0.9299999999999999,50.885557332620465,656.25,646.1100260416666,1.0155881403567755,0.5456225738141298,0.31939613161228003,64.24865402864884,0.3260196931474092,67.1863081289633,0.16458333333333333,103,2.265982008333333,0.09313907760284222,-0.0001645217965825186,34.48533333333334,0.011469767022724385,-5.069445819620205e-06,90.903,0.6625966596152838,2.0799999999999983,0.0008969099655246211
S093,11577.0,11606.984375,N2,-0.026578125000000105,34.21824725824203,-176.8,112.63,289.43,-0.225,32.243449606345166,687.5,689.6077473958334,0.7232310495558572,0.7162176100394038,0.3040239391159117,64.34416862562655,0.4168899258445202,67.83067152844649,0.028125,15,2.171202016666667,0.08446471060606547,0.00010033673468335901,34.488000000000014,0.009797958971133372,-2.2222228250391403e-06,90.88799999999999,0.12985633086864415,0.5300000000000011,-8.458335627803529e-05
S093,11607.0,11636.984375,N2,0.08289583333333325,30.767751990544408,-108.98,62.83,171.81,-1.205,18.892208100693118,671.875,668.0826822916666,7.54027956857186,2.9163623353131776,3.27531390962717,64.4217558698879,2.0993242501412106,86.1974477580398,0.025,10,2.5031709,0.2054656013056038,0.000151015114316166,34.480333333333334,0.01328742095199716,-6.284723927062236e-06,89.139,0.5261580877771745,1.75,-0.0007208682511035827
S093,11637.0,11666.984375,N2,-0.32339062500000015,51.21824632163892,-285.67,392.15,677.8199999999999,-2.74,15.63554196240811,671.875,669.1731770833334,3.090265117795541,1.4475059369481011,3.30252428706689,62.77747744563967,1.2828161321361298,77.2916554357584,0.019791666666666666,9,2.6599846416666666,0.22706846398453617,-0.0002746971710875573,34.487,0.012688577540450338,7.256946413017603e-06,89.61300000000001,0.34314379881715307,1.0499999999999972,0.0005892709931833221
S093,11667.0,11696.984375,N2,0.0017291666666667963,64.43402333515901,-694.99,393.97,1088.96,-2.45,28.171471479387762,687.5,672.8597005208334,1.6638726580547631,0.7315074036516804,1.210952172850173,62.78487473151345,0.51753094738211,67.95586803212802,0.115625,69,2.3868004166666665,0.08032956414500446,-0.0001078105991239689,34.50033333333333,0.014715826703096025,1.3020836865460772e-05,90.39200000000001,0.23030993610061065,0.7600000000000051,0.00019284727453539459
S093,11697.0,11726.984375,N2,-0.10261979166666665,23.518825734248335,-44.58,57.79,102.37,-4.24,16.937548019134656,656.25,663.0615234375,0.46517619123176207,0.05581428468591172,0.3561205295924713,62.809073577531215,0.3251045969158607,63.773035054010094,0.134375,85,2.4568904583333335,0.18311289530368488,0.0001954277081780892,34.51633333333333,0.017026123718829535,8.5763912153836e-06,89.77566666666668,0.18541275276768096,0.5800000000000125,-0.0002489931230992629
S093,11727.0,11756.984375,N2,0.10061979166666665,24.78102518353727,-47.45,62.48,109.93,-4.76,13.039006584509284,656.25,656.9580078125,0.49829461771292155,0.1825622991078814,0.534730226310946,62.86155907243342,0.4049374226921707,65.95452979136459,0.2520833333333333,143,2.606011008333333,0.11098131024490085,-0.00012048893090520045,34.52633333333333,0.016224124698183406,4.618056808282548e-06,89.76033333333332,0.17110393202832958,0.7000000000000028,7.121529709616519e-05
S093,11757.0,11786.984375,N2,-0.10045833333333327,80.45879820661276,-992.97,315.02,1307.99,-1.59,17.128389999089535,656.25,654.4759114583334,13.248496335997174,5.21255828637809,1.298996340662881,63.73163508208463,1.2000617056356857,72.62231062146122,0.06145833333333333,27,2.6763626916666667,0.16155016945966535,-0.00010031699791585227,34.48166666666666,0.046767747671041686,-6.96875189039498e-05,90.54566666666666,0.7290618781847138,2.4200000000000017,0.0008908682972190471
S093,11787.0,11816.984375,N2,0.050390624999999835,23.870398937184287,-43.74,59.05,102.78999999999999,-3.035,18.457461828090466,671.875,669.140625,0.6094942903182569,0.20790581133986827,0.2599996661322643,64.21836144387794,0.23929437265105738,64.93843238021688,0.028125,22,2.5214332500000003,0.09990903653075715,8.392870505878501e-05,34.37,0.03838402445462511,-6.437501746283981e-05,92.10066666666665,0.07848283605703611,0.25,-0.00013104170221400483
S093,11817.0,11846.984375,N2,0.1276354166666668,83.85178252572857,-844.8,647.63,1492.4299999999998,-0.1,22.131203643186254,656.25,660.0260416666666,9.461462347241248,3.842151174933343,1.4775871848689297,63.2594858746743,1.3149576185380043,81.57205403813245,0.052083333333333336,22,2.6387245833333335,0.1102743617581155,-4.670947751450674e-05,34.316,0.017625738755202847,1.243055892756133e-05,92.03433333333334,0.6277190631343165,2.3400000000000034,-0.000276770908412247
S093,11847.0,11876.984375,N2,-0.06735416666666666,26.78472493752237,-53.33,57.18,110.50999999999999,-2.605,15.699587919681596,671.875,670.2555338541666,0.5018617681941911,0.5391679144112301,0.5007795572210946,62.99988749724142,0.424028695873791,64.65291950097846,0.13125,91,2.7347721499999995,0.19201755235931123,0.00024243397895887012,34.321999999999996,0.012754084313138722,9.444447006414978e-06,90.63466666666666,0.050776197398213124,0.18999999999999773,-8.013891062796321e-05
S093,11877.0,11906.984375,N2,0.2960625,37.80402395105483,-284.43,94.61,379.04,-2.74,30.21326024885,656.25,661.1409505208334,0.4615876417774491,0.3649685464948392,0.5161287522400674,62.96421673708594,0.45542363274983855,64.94613152451807,0.07916666666666666,62,2.963143366666666,0.18520829018188925,4.877949022881134e-05,34.335666666666675,0.008034647195463707,-3.1597230793529137e-06,90.11333333333333,0.35628016441496557,0.8999999999999915,-0.0006243751693726021
S093,11907.0,11936.984375,N2,-0.2036562500000002,44.286118596935495,-133.51,121.25,254.76,-5.715,26.531240981716643,656.25,656.4290364583334,0.40632477944236783,0.32395498390551464,0.5194774016579867,62.99356595263815,0.4368717248369587,65.12296062065974,0.041666666666666664,33,2.8862514500000005,0.1149488558134914,8.486956902928848e-05,34.33666666666668,0.004714045207912728,-6.944446328249612e-08,89.90966666666667,0.10310135250756383,0.35999999999999943,0.00018350699422390305
S093,11937.0,11966.984375,N2,-0.23261458333333326,56.75520949508177,-274.36,243.84,518.2,-3.685,27.296256341918863,640.625,644.3033854166666,11.798418589226152,1.8811830922025876,2.1282937606442447,63.73385051789565,1.0677303791377186,75.16648189186454,0.04375,18,2.874685691666667,0.2649665933404246,-0.00036156453926989456,34.35466666666667,0.019447936194418383,2.631945158405052e-05,90.34166666666667,0.2239952876488448,0.6700000000000017,0.0003789931583640296
S093,11967.0,11996.984375,N1,0.11557812499999992,39.32371905467197,-164.07,139.97,304.03999999999996,-3.675,32.58169226322778,656.25,649.4140625,5.035249014585961,1.4215567409387266,0.638326669895595,63.5177982214833,0.6281062237134831,69.26037828369117,0.04791666666666667,23,2.5864944333333333,0.1473812664677193,-0.0001207349116576909,34.357000000000006,0.01486606874731555,4.687501271565167e-06,91.01466666666667,0.3183261779300517,0.789999999999992,0.0005197223632059345
S093,11997.0,12026.984375,N2,0.5023802083333334,76.44669218243973,-492.22,435.42,927.6400000000001,-0.9650000000000001,14.317551966433488,671.875,668.45703125,13.643763798219215,5.916933587729139,17.690916802879066,63.5474976623864,3.108610222537064,113.525327570547,0.046875,25,2.566923,0.12090363448934582,4.566456143244394e-05,34.339666666666666,0.011967548714011166,-9.062502458362234e-06,91.152,0.28645418481844553,0.7999999999999972,-0.000504097358967383
S093,12027.0,12056.984375,N2,-1.2696354166666668,90.05098973505461,-437.04,354.81,791.85,0.2,14.736416569758884,671.875,668.603515625,8.013578361196805,2.9194919352041757,4.785174950360284,63.84622756969397,4.6237448875901626,142.772546380598,0.011458333333333333,5,2.571869291666667,0.20659612680325495,-0.00020632609785321663,34.35033333333334,0.017026123718827807,-1.7013893504191852e-06,90.37466666666666,0.37967295868359663,1.0699999999999932,-0.0006053473864332119
S093,12057.0,12086.984375,N1,0.5305885416666665,50.29824401049241,-92.48,103.71,196.19,-3.7,35.53600773960598,671.875,673.33984375,0.44546202411715813,0.3121091305537215,0.34655421854146995,63.5486836493353,0.34189145943788174,64.45153217728807,0.13958333333333334,90,2.5485925583333335,0.10065041490896397,-7.756267880932043e-05,34.34366666666668,0.01378001773906183,-1.2743059012330516e-05,90.00566666666667,0.2427712686643299,0.6999999999999886,-8.406252280342126e-05
S093,12087.0,12116.984375,N2,-0.7718020833333334,94.73792925520907,-636.86,745.84,1382.7,-2.72,15.482742368919748,671.875,665.6087239583334,17.552356080966895,6.816798783866385,18.196224878429835,63.51806109949653,3.1946696481209167,119.60769206033531,0.030208333333333334,14,2.7373248416666667,0.14193348747200782,0.00014535488556718896,34.330999999999996,0.011357816691600416,-5.312501441110101e-06,89.60266666666666,0.1086564412366891,0.3999999999999915,-2.3333339662909905e-05
S093,12117.0,12146.984375,N2,0.9380312500000003,46.95889591883193,-98.63,144.17,242.79999999999998,-2.47,46.29273004394941,671.875,651.3916015625,3.066077134231224,1.7132031707204685,3.7347012874656014,62.57495823085417,1.8156203917269274,84.22588675698226,0.016666666666666666,4,2.777614275,0.1293176975964596,1.2045790811032658e-05,34.335,0.009219544457293621,3.3680564691988735e-06,90.15799999999999,0.2724139007711104,0.6999999999999886,0.0004529167895282054
S093,12147.0,12176.984375,W,0.5476249999999986,88.60034496255855,-419.78,287.04,706.8199999999999,3.27,10.122808190404589,687.5,681.5104166666666,17.182952397117244,2.82482465501794,10.01503015437575,62.979017397523585,2.733593662029616,84.99411744350311,0.10208333333333333,58,2.6741123333333334,0.2551637085545387,-0.00037739164577681373,34.31733333333333,0.023084386257574325,-3.3125008985733915e-05,90.82833333333333,0.1595845300216232,0.480000000000004,0.0001969792201006998
S093,12177.0,12206.984375,N2,-0.3297135416666673,57.3109890210786,-416.92,210.52,627.44,-1.08,21.745936807109853,687.5,692.48046875,4.273568103072328,2.43888293212225,1.7470013992235063,63.292758554925605,1.534209190829681,79.08223567907018,0.028125,9,2.6061459833333336,0.08916779369798486,-3.289857012222501e-05,34.226666666666674,0.03918616535916181,-6.576390672849024e-05,90.15766666666667,0.5095467484823044,1.5600000000000023,-0.0009103127469381367
S093,12207.0,12236.984375,N2,-0.23819270833333336,37.69532525883168,-219.91,125.92,345.83,-3.565,19.385399368991752,671.875,679.4026692708334,0.747825986842676,0.7019249017582532,0.5541030273609372,63.26531793093071,0.4140315184347728,65.80273550544841,0.19479166666666667,115,2.68690865,0.09794954253769729,0.0001511108734567257,34.115,0.0329393381839999,-5.5243070541195064e-05,88.50366666666666,0.41297686241348747,1.2000000000000028,-0.0006824654629083829
S093,12237.0,12266.984375,N2,1.2796927083333334,94.60177448377218,-790.12,528.93,1319.05,-2.21,39.36046887258704,687.5,704.5166015625,3.7418648738797344,1.0821929093537601,0.9792636255186286,63.420514827423176,0.7135351133131868,68.62215385719105,0.051041666666666666,23,2.84159115,0.17358729874483186,0.00022435700400309346,33.99633333333333,0.06833658528847457,-0.00010934030743823488,87.82233333333333,0.2117653313353134,0.7099999999999937,8.656252348158619e-05
S093,12267.0,12296.984375,N2,-1.1759322916666661,110.6994978814907,-514.26,656.67,1170.9299999999998,-3.725,18.23200748651267,703.125,703.9876302083334,16.675442351079226,4.940472030979316,6.763073758777636,62.906459210806126,1.6476921918809435,75.9012516365837,0.053125,21,2.8918135916666667,0.08518027056782729,-3.021453011461865e-05,33.943333333333335,0.04763285514105737,6.013890520261303e-05,88.33366666666667,0.2135022768548916,0.7000000000000028,0.0003592014863285303
S093,12297.0,12326.984375,N2,-0.13113541666666667,27.34555583870066,-51.95,54.02,105.97,-1.245,35.06606508513772,671.875,681.2744140625,0.5784308500278049,0.32447707663853376,0.5525656305287786,62.29750492225037,0.37506283321329176,64.20280367709809,0.12916666666666668,80,2.8440713250000003,0.09742083199117482,1.9881805957521152e-05,34.00866666666666,0.016069294390925193,1.1180558588475606e-05,88.23233333333334,0.12650911253959407,0.46999999999999886,-7.267363082509524e-05
S093,12327.0,12356.984375,N2,0.3371927083333333,29.28160457601661,-62.84,59.39,122.23,-0.8,17.259850090027093,671.875,672.265625,0.28925903603959474,0.42555111326373,0.4932486906554678,62.27269293277518,0.36549952160309773,63.4428877022476,0.16041666666666668,112,3.0208950750000003,0.1299694985892948,-6.421342605615945e-05,34.04833333333333,0.015509853498842093,1.3784725961566874e-05,88.77733333333335,0.1515241088261396,0.5300000000000011,1.57638931651169e-05
S093,12357.0,12386.984375,N2,-0.2651354166666665,30.175328669198656,-62.61,105.89,168.5,-2.46,47.1795004154376,656.25,647.509765625,2.2482979673521926,1.1622754972884966,2.1245033631252634,62.38088359534115,0.7073626117463185,73.27346040688948,0.03229166666666667,18,3.0577550499999995,0.14836608304847676,7.634792826278434e-05,34.06466666666667,0.013597385369582885,2.500000678168978e-06,89.63833333333334,0.555032031107715,1.5,0.0009521183138341786
S093,12387.0,12416.984375,N2,0.08086458333333316,29.346237150229257,-90.16,127.26,217.42000000000002,-1.525,22.70547918879277,656.25,655.9651692708334,1.6822900541787937,0.9379854067435637,1.9717404536770722,62.406977733813314,1.5749884014373325,90.4267659490264,0.019791666666666666,9,2.9238936666666664,0.05944990593997791,-9.537299201741318e-05,34.08400000000001,0.013808210118139472,8.263891130613256e-06,90.249,0.22879903845951843,0.7999999999999972,0.00030336813784942836
S093,12417.0,12446.984375,N2,-0.16157291666666662,19.547124115116436,-44.68,41.51,86.19,-1.1949999999999998,18.776371741777503,671.875,672.7783203125,0.44813947946543997,0.5545493274698132,0.6231561342940735,62.42438285329924,0.32366451466548696,64.45153217728807,0.13333333333333333,61,2.6992750333333335,0.06478874451025853,-0.00011505547739135125,34.088666666666676,0.017074997966487915,1.9444449719084896e-06,90.06266666666667,0.4903327668249627,1.4500000000000028,-0.0008534030092781612
S093,12447.0,12476.984375,N2,0.08710937500000011,39.4179177245328,-340.89,102.11,443.0,-1.1099999999999999,23.577349185503728,671.875,675.4638671875,0.5499279861314166,0.4753242679710581,0.8193719806707656,62.42686560580973,0.3211188266650767,64.02343321003646,0.10729166666666666,55,2.518690008333333,0.040375487666713436,-4.026289395152287e-05,34.09533333333334,0.013597385369579822,-1.6666671187793682e-06,89.90233333333332,0.3097922242765648,0.8899999999999864,0.0002323264519114717
S093,12477.0,12506.984375,N2,-0.11815624999999993,32.23374898586758,-79.42,68.2,147.62,-2.06,18.33875684278771,671.875,666.8050130208334,0.45918363360969217,0.27442332211789544,0.22688016523045815,62.3349372501068,0.3217369918369064,63.56099432828282,0.04791666666666667,36,2.475142916666667,0.07197869463396597,3.1563152659275353e-05,34.09000000000002,0.007302967433402059,-1.527778192214523e-06,90.19166666666665,0.2900814061987132,0.9500000000000028,0.00044350706475343834
S093,12507.0,12536.984375,N2,0.33120312500000004,33.93055022395609,-70.34,71.89,142.23000000000002,-2.0700000000000003,21.1807138058391,656.25,657.1858723958334,0.6726223233959422,0.7678404737024191,0.7875964447115175,62.29959285980185,0.4463979946130051,64.63745044476924,0.08645833333333333,49,2.7026127916666667,0.10797249059836923,0.00015830224888841387,34.08933333333334,0.013148721948877552,8.819446836872313e-06,90.06333333333332,0.28810106251491374,0.7800000000000011,-0.0003771528800870435
S093,12537.0,12566.984375,N2,-0.4594739583333334,33.0732594635938,-86.81,118.28,205.09,-2.5,51.73998191684577,656.25,645.7926432291666,0.800908230108516,1.0380515393100136,1.0813357986190044,62.36067653063794,0.5265668439479795,65.5286197016235,0.125,59,2.7865782416666667,0.05546116410366145,2.1379973464619504e-05,34.094666666666676,0.012310790208411897,5.069445819618798e-06,90.30099999999999,0.1015988845083119,0.45000000000000284,0.00014065976037862292
S093,12567.0,12596.984375,N2,0.2951979166666668,33.66703322246401,-159.96,74.51,234.47000000000003,-1.9899999999999998,13.012364494439842,671.875,673.4456380208334,0.26536138880151094,0.045595976308831845,0.4335523785317704,62.395298121999566,0.29703636163286046,63.35613624582863,0.22395833333333334,114,2.7514770166666667,0.08639367893920089,7.318562445356564e-05,34.09933333333334,0.01526069752301212,7.2222241813752445e-06,90.57233333333333,0.0662662977856941,0.27000000000001023,-0.00010677086229678432
S093,12597.0,12626.984375,N2,0.15533333333333324,29.188900647929895,-87.67,94.15,181.82,-2.59,29.171534540766064,656.25,655.4036458333334,0.7130936854065296,0.44507212079429703,0.6436918460787998,62.34258324664482,0.44513758378186374,65.06150935845248,0.159375,90,2.874999191666667,0.07847019064930495,7.166271279913004e-05,34.10933333333334,0.013148721948876965,1.2708336780689119e-05,90.30133333333333,0.25613451327161896,0.710000000000008,0.0003613889869219263
S093,12627.0,12656.984375,N2,0.05284374999999987,28.93366044787776,-73.96,58.98,132.94,-2.185,21.637214547986282,671.875,667.333984375,0.5009712788396379,0.7026356321716272,0.6278675536532808,62.28657075517851,0.47189712170791426,64.89221833163049,0.18229166666666666,102,2.8086809583333334,0.046221518786779346,-5.831562237294443e-05,34.100666666666676,0.012364824660659602,-4.027778870382069e-06,90.61733333333333,0.13901878370285722,0.37999999999999545,0.0001322917025530856
S093,12657.0,12686.984375,N2,-0.37906249999999997,28.69044547072411,-90.17,79.14,169.31,-3.99,61.878778597006765,640.625,629.2887369791666,0.6481510829960009,0.5679510184646208,0.57457713919794,62.33068221193631,0.4514015152160266,65.26101439603893,0.20208333333333334,112,2.6621764666666663,0.05259183501915695,-4.619434716643528e-05,34.10266666666668,0.012092238098143367,-3.6805565539706737e-06,90.48733333333332,0.23210534006973738,0.6700000000000017,-0.00029145841239648645
S093,12687.0,12716.984375,N2,0.3351927083333332,31.008299073331916,-102.69,110.09,212.78,-2.57,25.8526042616761,656.25,646.9319661458334,0.8191335774514028,0.8653178355940794,0.875366366752611,62.41139255733572,0.5365358523022661,65.22269543648132,0.0625,37,2.6664255,0.07986529528305769,-6.570331122594162e-05,34.10133333333334,0.013349989596332821,-6.180557232138639e-06,90.28699999999999,0.22045634488487856,0.6400000000000006,0.0003217709206192819
S093,12717.0,12746.984375,N2,-0.32340104166666656,29.589965614165536,-128.75,95.09,223.84,-2.88,25.94024107516856,656.25,655.2978515625,0.9770539041410264,0.9674919026003382,0.842450130406674,62.4842909317684,0.633156184622401,66.11353870426238,0.07083333333333333,47,2.5699586666666665,0.0405402107613197,1.2809629342889868e-05,34.10266666666668,0.012092238098143367,3.680556553969391e-06,90.67933333333333,0.10253237970947919,0.3199999999999932,0.0001092361407433075
S093,12747.0,12776.984375,N2,0.2688489583333334,26.36241920878443,-75.93,85.74,161.67000000000002,-2.0,39.67248347185009,656.25,667.7734375,0.49646209258613094,0.5015589844978909,0.35051889858307056,62.47925847058607,0.4324958177433792,63.58458932791813,0.35520833333333335,159,2.5424043833333334,0.05696183170746638,-1.5483237707041527e-05,34.10400000000001,0.01380821011813769,-9.236113616566675e-06,90.737,0.362823648622854,1.0300000000000011,-0.00044156261978152677
S093,12777.0,12806.984375,N2,-0.020718750000000046,26.69682653589308,-51.47,58.44,109.91,-3.46,30.847087189582403,656.25,656.9417317708334,0.5552151735038308,0.49258389020438836,0.4144197227415971,62.55867421008805,0.4266998274320295,63.788713735268246,0.029166666666666667,18,2.556879775,0.20278262998481333,0.00014032293975774194,34.09666666666668,0.011925695879997698,3.0555563844283553e-06,90.37999999999998,0.1268069398731777,0.37999999999999545,-7.34722421528423e-05
S093,12807.0,12836.984375,N2,-0.10582291666666661,26.383135002345245,-54.46,53.93,108.39,-0.98,27.752708142536136,656.25,653.515625,0.7758556824117199,0.8562975199709114,0.9281103861550568,62.50070745651858,0.45769433178689184,64.40496875241847,0.13958333333333334,81,3.031881,0.27119234572049283,-0.00026800088519989283,34.09000000000001,0.012649110640673247,-4.027778870382512e-06,90.61833333333334,0.39773595372921644,1.1200000000000045,0.0006018404410374467
S093,12837.0,12866.984375,N2,-0.0025208333333333055,30.187787510700957,-159.09,95.66,254.75,-1.335,34.476497389317494,640.625,653.1982421875,2.4260841559181787,1.3324720525524478,1.7835690921848872,62.52826585774587,0.9283329986516579,80.11242100947892,0.021875,12,2.7750093666666666,0.06943870731826898,3.129465128435637e-05,34.09200000000001,0.011944315244778647,4.652779039924783e-06,90.98433333333332,0.1237654591915251,0.38000000000000966,-6.354168390345941e-06
S093,12867.0,12896.984375,N2,-0.09060937500000005,29.424341214898007,-65.77,71.98,137.75,-1.895,20.54987393577996,656.25,661.279296875,0.5714934975206047,0.23384430658500588,0.37948561447994605,62.48629265582471,0.3426321603315751,64.89221833163049,0.14583333333333334,72,2.823210725,0.11017442061128667,1.3928381165467963e-05,34.09066666666668,0.00963788819653358,-9.375002543132184e-06,90.68299999999999,0.31380620346534366,0.7800000000000011,-0.0005075348598998614
S093,12897.0,12926.984375,N2,0.2421302083333335,29.73172988179961,-185.92,128.71,314.63,-0.49,41.825746604405566,671.875,662.5406901041666,1.2553008264677257,1.102457403435112,1.3753787357185172,62.738379037362236,0.6838645803570013,68.7749954561976,0.07395833333333333,36,2.9286131916666664,0.14114467080199994,-2.6404861980485548e-05,34.08400000000001,0.011718930554165412,-1.5972226554964022e-06,90.407,0.16723536308647924,0.5300000000000011,0.00016496532252748645
S093,12927.0,12956.984375,N2,-0.04866666666666652,42.98839288586772,-201.32,167.07,368.39,-0.11,28.540469513449672,640.625,648.5188802083334,4.971124956519735,1.537210620915545,2.765155327350527,62.816760759216486,0.7701359529500248,70.66823897621902,0.1,49,2.8692342083333333,0.07129871458342196,-5.441621463113463e-05,34.062666666666665,0.016719914938647162,-2.1180561301152578e-05,90.566,0.24812093825391,0.6300000000000097,0.000409583444439955
S093,12957.0,12986.984375,N2,-0.1678489583333333,32.13910867729434,-260.08,129.32,389.4,-0.835,68.31657692688601,625.0,609.8795572916666,1.8750899862665853,1.2567418018818433,1.7167573676483816,62.770334088190516,0.6297751902712386,66.52067347825036,0.08229166666666667,40,2.9511123083333337,0.21220091944726174,-0.00031035005966527227,34.056666666666665,0.013984117975602851,-2.361111751604602e-06,91.00499999999998,0.2947965400068326,1.1200000000000045,0.0004350348402329762
S093,12987.0,13016.984375,N2,0.19388541666666675,24.563188820014883,-55.9,64.98,120.88,0.41500000000000004,57.43785759712251,671.875,656.9417317708334,0.7392634284655684,1.0609854401294423,0.8806064188560946,62.74675661244355,0.44692611481617395,64.28841264178172,0.196875,104,2.857883425,0.1848986475125252,-1.916025281039843e-05,34.04966666666667,0.014715826703095911,1.7708338137033095e-06,91.82633333333334,0.31029537898947784,1.0700000000000074,-0.0005285765322744537
S093,13017.0,13046.984375,N2,-0.15202083333333327,31.472643525760045,-120.05,137.03,257.08,-1.1400000000000001,71.43876705935374,656.25,626.6520182291666,1.1523860926778067,1.6765588595021053,1.4341139922294648,62.6704531719987,0.7322391797199104,66.1362230551458,0.07291666666666667,41,2.625985483333333,0.06727429780966172,-0.00011165221040912827,34.04666666666667,0.01164283279771477,-4.097223333665504e-06,90.33066666666667,0.5872077050660094,1.7800000000000011,-0.0010368752812704221
S093,13047.0,13076.984375,N2,-0.19793229166666662,25.781585360356182,-58.75,54.94,113.69,-0.915,19.456501658758746,671.875,674.658203125,0.3270750397037692,0.4813976595261159,0.5014464754172008,62.586910823320565,0.36862617973365064,64.15605972938177,0.21770833333333334,105,2.7986562999999998,0.1607200387110871,0.00016147177166660475,34.041333333333334,0.011175369742825191,-2.1527783617563235e-06,89.08066666666667,0.11713050651113678,0.46999999999999886,-5.458334814001432e-05
S093,13077.0,13106.984375,N2,0.3951197916666663,156.90512706790042,-572.55,886.73,1459.28,-2.2300000000000004,50.52904344159243,578.125,611.7919921875,19.3395480986429,17.403503018579574,8.853270542887275,63.97954035714748,4.133032464765355,108.13417591122614,0.03958333333333333,13,2.401733141666667,0.27496928785391334,-0.00044081132118362656,34.00366666666667,0.026643740144522966,-4.065973325188002e-05,89.63033333333333,0.3075872053400279,1.0700000000000074,-0.0002465625668843779
S093,13107.0,13136.984375,N1,-0.3649687499999998,35.66105639091038,-99.51,90.86,190.37,3.25,56.85655147945991,703.125,723.681640625,1.1823334243727057,0.6272796965535656,0.462664197579867,63.866696166439176,0.465828062425415,64.22616289332565,0.0,0,1.9047720333333333,0.0838902192050155,-0.00015121842947548537,33.931999999999995,0.03239341496868441,-5.4375014750167986e-05,87.88133333333332,0.7181166726622884,2.3200000000000074,-0.0012478475607225375
S093,13137.0,13166.984375,N2,0.15626041666666676,34.73844318731075,-107.31,81.54,188.85000000000002,4.665,23.690211961426957,703.125,701.0660807291666,0.2060684175421681,0.1066322779852955,0.42809331796804406,63.95505143279477,0.4273713005979202,64.26507605223851,0.0,0,1.6486302416666667,0.06200716137068308,-0.0001117040062131093,33.851,0.023572582944314757,-3.156250856187696e-05,85.911,0.34810295411941866,1.2999999999999972,-0.00045503484565832277
S093,13167.0,13196.984375,N1,-0.03491666666666641,33.108392904552495,-85.88,67.53,153.41,2.525,38.61436945997745,671.875,686.5071614583334,1.0234866665458922,0.8930650055660375,0.47344408915473385,63.97973125067483,0.4646117641890614,66.1362230551458,0.00625,4,1.4729473166666667,0.034676204315539735,-6.070172219556268e-05,33.791333333333334,0.024184476196289988,-3.708334339283467e-05,85.65766666666666,0.4182318602030325,1.4699999999999989,0.0006323960048817284
S093,13197.0,13226.984375,N2,-0.26255729166666664,39.576899169684104,-134.65,99.24,233.89,4.31,39.53289030254618,703.125,709.4563802083334,0.4365266951236265,0.22106660242635776,0.49997287252798917,63.91415524905424,0.4974188038851674,64.50581369148055,0.08645833333333333,61,1.3575892999999999,0.03402994069629469,-6.115908212865727e-05,33.714000000000006,0.02199999999999939,-2.951389689504495e-05,86.49700000000001,0.4284168530765321,1.1999999999999886,-0.0006021182188905747
S093,13227.0,13256.984375,N2,0.5354218750000002,36.602136767787954,-88.78,76.99,165.76999999999998,4.5600000000000005,26.276204940747345,703.125,704.4189453125,0.293592969257137,0.44545837035824376,0.4888058986931542,63.89242344270876,0.48508757037525463,64.63745044476924,0.39479166666666665,231,1.2531796333333332,0.027140377703995862,-4.879845377562223e-05,33.66066666666666,0.012364824660661071,-1.3680559266645572e-05,86.20800000000001,0.20580573364219054,0.8299999999999983,-0.00031472230759611153
S093,13257.0,13286.984375,N2,-0.072703125,35.19416199568519,-95.03,91.04,186.07,4.385,39.89265449150347,703.125,706.1197916666666,0.24869232650785364,0.5016022505016633,0.48072211307573515,63.86213612637337,0.4770423215569021,64.50581369148055,0.3614583333333333,214,1.1674741083333335,0.022669713574427812,-4.063315360057332e-05,33.638,0.017397317800931903,-2.201389486053851e-05,85.596,0.5192340512716781,1.4500000000000028,0.0007491668698911857
S093,13287.0,13316.984375,N2,0.12640625000000003,35.8478397318322,-107.61,79.38,186.99,3.4850000000000003,30.351235022319926,687.5,700.4231770833334,1.0479969112748695,0.3879197994860965,0.5116259060176032,63.84304831432397,0.5406156381656648,70.34912934784623,0.26979166666666665,192,1.0915475916666668,0.020141853831634516,-3.6146990057234684e-05,33.60866666666667,0.016275407487644417,-1.7777782600309494e-05,85.56466666666665,0.1974290308496244,0.5899999999999892,-0.0002675000725640395
S093,13317.0,13346.984375,N2,-0.12207291666666663,35.6080951071712,-86.62,79.34,165.96,3.355,38.56329439960354,703.125,699.6907552083334,0.488122821520249,0.06441510347391795,0.49670681989535387,63.87373571186716,0.49901023090440605,64.50581369148055,0.4427083333333333,232,1.0249624416666667,0.0185855097929345,-3.319215375221186e-05,33.59333333333335,0.010434983894998001,-1.0416669492373454e-06,86.20599999999999,0.14894294209528666,0.6400000000000006,0.0001249305894451461
S093,13347.0,13376.984375,N2,-0.09321354166666668,37.62521201956076,-80.75,188.23,268.98,0.235,29.613290582082392,703.125,696.7122395833334,0.45585385199096434,0.20305821551685338,0.4942101846352645,63.88488505085738,0.492235078061381,64.63745044476924,0.41041666666666665,226,0.9723016833333333,0.011517450971593303,-1.0183480193001357e-05,33.58933333333334,0.01209223809814457,-7.152779718094303e-06,86.54099999999998,0.4690440633174373,1.2299999999999898,0.0007321182541553408
S093,13377.0,13406.984375,N1,0.45745833333333324,39.17123565590909,-113.44,86.14,199.57999999999998,4.21,29.822110180171357,687.5,684.6516927083334,0.5383220054922725,0.35648140632514835,0.3960402419753438,63.807820327227134,0.3867364584591847,64.93843238021688,0.19479166666666667,128,0.9360831583333333,0.016500562791409993,-2.9461684424285047e-05,33.56933333333334,0.0131487219488794,-1.1458336441607815e-05,86.52700000000002,0.07874642849043968,0.2600000000000051,-5.1979180766920975e-05
S093,13407.0,13436.984375,N2,-0.3890104166666666,37.04870099021545,-87.5,73.19,160.69,2.855,27.4420421763473,718.75,717.8304036458334,0.11110243021644485,0.10642856726723118,0.2795007329547138,63.72613314755351,0.2771805553856551,64.77653896280658,0.08541666666666667,75,0.8790742416666667,0.01563179977801439,-2.7987030812454122e-05,33.55866666666667,0.012310790208414298,-7.70833542435373e-06,85.779,0.6921384736211857,1.75,-0.0012049656046456147
S093,13437.0,13466.984375,N2,-0.2807968749999999,44.82621584659368,-93.52,130.04,223.56,3.91,35.3691146486952,703.125,704.1910807291666,0.45095264710449984,0.6133780554347286,0.21341459633904042,63.80737301338369,0.21011694580396992,65.62011886609167,0.03958333333333333,32,0.8313425999999999,0.015405435211530594,-2.758692501815457e-05,33.56133333333334,0.014313940369057645,5.902779379010653e-06,84.40433333333334,0.2843669382251664,0.8400000000000034,-0.0004962848568481054
S093,13467.0,13496.984375,N2,0.24245312499999977,44.208822570803235,-100.8,99.49,200.29,3.55,40.042383733356466,703.125,698.4700520833334,0.3040792539920034,0.4958114490968875,0.1428261375083551,63.83355212639568,0.14971504063205313,64.94613152451807,0.06458333333333334,47,0.7832586166666667,0.013280589187597143,-2.3744255138958095e-05,33.56266666666667,0.014126413400279723,1.7847227063594683e-05,84.59099999999998,0.37032733268465884,1.230000000000004,0.0006104515544844732
S093,13497.0,13526.984375,N2,-0.7388124999999998,44.20869842937032,-148.82,105.86,254.68,1.35,35.67945931869352,687.5,694.2708333333334,0.7259303178603913,0.49253873049910163,0.1721462506046014,63.90253407536211,0.19228125368428392,66.12866246946176,0.03229166666666667,26,0.7423809166666667,0.010253433791160997,-1.820426969516864e-05,33.56933333333333,0.013148721948878693,1.3402781413516302e-05,86.04133333333334,0.19069580196975727,0.6899999999999977,0.0002879861892323654
S093,13527.0,13556.984375,N2,1.3154322916666668,46.05640397156828,-148.28,145.86,294.14,4.65,22.77153616446157,687.5,695.2718098958334,0.4761670148610324,0.20947344286063777,0.15612494995995993,63.82686698643589,0.17019800964228973,65.14598989960932,0.025,19,0.7059015833333333,0.011289261361712537,-2.010669989873587e-05,33.57866666666667,0.013349989596334834,8.819446836872856e-06,85.95,0.15033296378372826,0.6199999999999903,-0.0002176389479272303
S093,13557.0,13586.984375,N2,-0.8576041666666668,54.105620120602836,-182.56,169.86,352.42,5.085,30.218416482372938,703.125,701.85546875,5.616442564767607,1.1078549837097613,1.3066071415013092,64.4612707414421,0.49349035637357924,66.27216610312357,0.25833333333333336,83,0.6680023750000001,0.00985601207729112,-1.7363720205002237e-05,33.59466666666667,0.026170381901854545,2.5763895877792273e-05,85.46366666666667,0.14911926621183194,0.46999999999999886,-0.00017309032473152957
S093,13587.0,13616.984375,N2,0.2754010416666666,43.513562597692825,-98.58,85.33,183.91,3.245,23.804627664416625,703.125,708.8704427083334,0.10642856726723118,0.46266419757986704,0.3210226714043037,64.44845665395982,0.3054667292246696,65.33758489567853,0.11666666666666667,92,0.63677555,0.00887399291079463,-1.5677571961146904e-05,33.63366666666666,0.013287420951995544,5.4513903676724776e-06,85.49333333333334,0.08821690440171927,0.3500000000000085,1.7569449210463302e-05
S093,13617.0,13646.984375,N2,-0.17057812499999983,45.52018496444211,-95.22,94.14,189.36,4.234999999999999,25.34734705599581,703.125,708.056640625,0.2603562429900403,0.4834725015160865,0.3717217821615157,64.48583886908958,0.3572492358057077,66.31741852635702,0.16354166666666667,128,0.6102889166666667,0.007313018612473851,-1.2706882353212454e-05,33.642999999999994,0.010049875621118892,-5.659723757519424e-06,85.04566666666666,0.21677458850663778,0.7399999999999949,-0.0003068403610135521
S093,13647.0,13676.984375,N2,0.19956249999999986,52.07322201133637,-162.51,293.88,456.39,3.25,21.482839818494053,687.5,689.404296875,3.0734858229975077,0.8784153335773964,1.3218413444625476,64.71853818990952,0.7334152265644333,80.73413156775763,0.019791666666666666,11,0.5947021083333334,0.0035696530802395753,-3.3260740359358814e-06,33.651999999999994,0.01077032961426748,1.256944785412346e-05,85.39333333333335,0.33808611657715604,1.2000000000000028,0.0006072918314051194
S093,13677.0,13706.984375,N2,0.11359895833333372,52.4664137619209,-204.88,151.09,355.97,3.935,21.992877462287204,687.5,697.3958333333334,0.334995854037363,0.08533405557962581,0.11632669960790028,64.87351988145842,0.1625367343671385,66.58077800686922,0.01875,11,0.5773965833333333,0.006637965960522505,-1.1448094685355532e-05,33.664333333333325,0.010857664983269136,-3.368056469199391e-06,86.27266666666667,0.10233713347992976,0.38000000000000966,4.8125013054747195e-05
S093,13707.0,13736.984375,N2,-0.5187291666666666,47.65308376312054,-108.95,97.1,206.05,2.385,23.534362695170966,703.125,702.392578125,0.4012661709271734,0.06441510347391793,0.04559597630883185,64.83156268017248,0.1539115986478704,66.29479617586888,0.00625,6,0.5551588583333334,0.00663951371373918,-1.1473781541281897e-05,33.67399999999999,0.013564659966252028,-1.1111114125196936e-06,86.20466666666668,0.24020454246791942,0.769999999999996,-0.0004032639982812513
S093,13737.0,13766.984375,N2,0.3051041666666665,47.13021864991875,-98.85,107.01,205.86,3.01,19.413701989425345,687.5,695.3287760416666,0.3418682713130243,0.19497818610181894,0.05581428468591173,64.85875998293041,0.13541347775972104,65.82552696332935,0.042708333333333334,39,0.5313944833333334,0.007258180078347614,-1.2691435300411044e-05,33.672999999999995,0.01417744687875923,-4.270834491871892e-06,85.98033333333333,0.311581806629049,0.8000000000000114,0.0005227431973587227
S093,13767.0,13796.984375,N2,0.4526458333333332,48.85676966142528,-105.01,98.18,203.19,3.63,20.672839583625105,687.5,695.6787109375,0.33637769931614403,0.19249988726547926,0.05589199343873463,64.8636046954548,0.13414262971851454,65.82552696332935,0.040625,32,0.5087937666666666,0.006639830975174666,-1.1499474907626668e-05,33.69166666666667,0.015723301886761215,1.0729169577140443e-05,86.515,0.16266017746619385,0.45000000000000284,0.00026163201541667323
S093,13797.0,13826.984375,N2,-0.7235208333333335,50.006194320466264,-121.27,101.22,222.49,2.02,21.85768623000164,687.5,684.7900390625,0.37121790686199396,0.19328741821874149,0.09677414104501263,64.85304355291117,0.16593248889989007,66.75327707311455,0.009375,9,0.4896306666666666,0.005487161662057679,-9.175081481955704e-06,33.693999999999996,0.017048949136726367,9.791669322827409e-06,86.80366666666667,0.23809638571152186,0.6500000000000057,0.0004094792777450336
S093,13827.0,13856.984375,N2,0.9849166666666667,50.4125542378555,-156.86,185.88,342.74,0.445,36.435641538534,687.5,677.44140625,0.8695639672016978,0.5569313476916762,0.3591424368277238,64.94398050869398,0.303143013073192,66.79071791798619,0.17083333333333334,86,0.5146240833333332,0.03137720267635494,4.597706238527082e-05,33.690666666666665,0.01842703328144776,1.9444449719087848e-06,87.40233333333335,0.4669452739763922,1.3499999999999943,0.0007223265848325136
S093,13857.0,13886.984375,N2,-0.8130624999999998,47.713787049231655,-102.93,101.91,204.84,2.95,33.917207954142704,703.125,706.7626953125,0.12074350109035083,0.4996863165332382,0.44545837035824365,65.07331846050624,0.4078597032513195,65.76473218982953,0.0010416666666666667,1,0.5312613916666666,0.00752122778352027,-1.2637796179957727e-05,33.686,0.017435595774163707,-1.659722672450923e-05,87.77933333333334,0.3801923489790684,1.1400000000000006,-0.0006767362946875789
S093,13887.0,13916.984375,N2,0.3180729166666664,48.956176134406334,-205.21,146.18,351.39,3.3049999999999997,57.79178465904726,687.5,669.9869791666666,0.4687453703475078,0.4854647240159566,0.3365582926849374,65.1174944226048,0.33764397723525025,66.19667665374146,0.004166666666666667,3,0.5087887416666667,0.005461097443884079,-9.546281018413902e-06,33.66899999999999,0.014456832294802394,1.1458336441607427e-06,86.99266666666666,0.11369354520913627,0.39000000000000057,-0.0001852083835743204
S093,13917.0,13946.984375,N2,-0.10468229166666679,49.02686139062675,-166.13,256.34,422.46999999999997,2.75,17.423954921732797,703.125,710.7014973958334,0.48864604428688685,0.46992791815754986,0.3016160178475643,65.15015816304835,0.2933564324359301,65.82552696332935,0.003125,1,0.49074657499999996,0.00509569855476574,-8.597542479802106e-06,33.65399999999999,0.010198039027184145,-8.611113447023886e-06,86.30733333333333,0.17154073050509772,0.6500000000000057,-0.00015548615328943348
S093,13947.0,13976.984375,N2,0.1893437499999998,45.48302781769448,-96.95,97.23,194.18,5.08,19.092504515871088,703.125,706.005859375,0.3410547747430022,0.4988169597908636,0.2929269646127209,65.18513675834394,0.29408750851012416,65.37583651472461,0.0,0,0.4748502333333333,0.005013392797852124,-8.366112946536714e-06,33.649333333333324,0.008537498983242102,4.027778870381922e-06,85.66033333333331,0.4595685174402418,1.3299999999999983,-0.0008214238339365864
S093,13977.0,14006.984375,N2,-0.13483854166666653,42.5256482910972,-92.7,97.06,189.76,1.865,34.930022652523405,687.5,687.0361328125,0.5013869652163775,0.5018023072441532,0.19290530474101078,65.0436927510259,0.2506491109244407,65.92419889539804,0.19791666666666666,115,0.4585055416666667,0.004176934792994805,-6.6917667892162515e-06,33.62466666666667,0.014544949486181012,-1.5833337628401327e-05,85.49433333333333,0.4370788131320125,1.4099999999999966,0.0007637849294121445
S093,14007.0,14036.984375,N2,-0.5733281250000003,50.316390292832686,-120.16,128.21,248.37,4.22,19.66651699849738,703.125,706.6243489583334,0.4986690184185854,0.4411110892457314,0.15612494995995993,65.124821706496,0.23781511819389517,65.37583651472461,0.36354166666666665,178,0.44446682500000007,0.004277024251085681,-7.153521688780846e-06,33.59933333333335,0.012364824660659654,5.55555706260612e-07,86.49766666666667,0.04666785712767092,0.1599999999999966,-3.0381952686075627e-05
S093,14037.0,14066.984375,N2,0.7779531249999999,60.984441357918385,-265.48,345.98,611.46,4.735,23.492873441425253,687.5,689.9332682291666,0.9052790536241052,0.617256720801807,0.42609642068694054,65.08738618341013,0.44589962805321154,68.14690014960328,0.026041666666666668,13,0.4324991583333333,0.0034428402034653335,-2.5921111632245985e-06,33.59066666666668,0.01671991493864635,-1.0347225029087108e-05,86.32300000000002,0.1445256609279695,0.3499999999999943,-0.0002447570108390311
S093,14067.0,14096.984375,N2,-0.012322916666666945,67.08721139323592,-328.54,322.72,651.26,3.085,21.019912339126627,703.125,696.5087890625,0.39312533121342697,0.13564084008881694,0.07198059875565237,65.17936408175821,0.172234039251898,65.68104749469211,0.0020833333333333333,1,0.422474575,0.00455269347687443,-7.723349968356653e-06,33.58200000000001,0.013266499161422673,-1.111111412519842e-06,84.81333333333333,0.7331363371767131,2.1599999999999966,-0.0009862502675375073
S093,14097.0,14126.984375,N2,-0.23249479166666637,60.03564977695001,-129.47,121.06,250.53,5.705,23.933750477558483,703.125,697.5992838541666,0.36683234893098265,0.11110243021644485,0.06451609403000842,65.19508156758171,0.17465984952017838,66.58077800686922,0.0010416666666666667,1,0.40817965000000006,0.0038522804580533834,-6.271984774301424e-06,33.57600000000001,0.014742229591666293,-8.541668983744005e-06,84.53833333333333,0.082100886448048,0.3299999999999983,-9.621530387784731e-05
S093,14127.0,14156.984375,N2,-0.10744791666666662,62.71125211740477,-134.53,114.9,249.43,5.68,17.89213052973627,687.5,695.0846354166666,0.249574290320315,0.09090593428863095,0.10152910775842672,65.23137780626003,0.13171748923016105,65.68104749469211,0.00625,5,0.39829385833333336,0.0034802345114849035,-5.526101976481659e-06,33.580000000000005,0.013416407865000306,1.0416669492368035e-06,86.00566666666667,0.9746749315655056,2.799999999999997,0.0013601739800819174
S093,14157.0,14186.984375,N2,-0.02796354166666652,65.90878224682267,-174.42,165.91,340.33,3.35,20.390364579071992,687.5,684.7086588541666,1.6862492149532808,0.14359895446075582,0.5736084838183039,65.04539218276523,0.2214477897812122,65.92419889539804,0.017708333333333333,15,0.39221914166666666,0.00265584382163759,-2.713421091965361e-06,33.59000000000001,0.012649110640673622,7.222224181375886e-06,86.53466666666667,0.1433581373886949,0.5800000000000125,0.000234722285894719
S093,14187.0,14216.984375,N2,0.3838020833333334,55.18536318458904,-130.34,115.73,246.07,5.66,37.966601568695964,703.125,698.73046875,0.5805551402178206,0.12068956964966865,0.3094574104604524,65.0690121690726,0.29352230082491954,65.92419889539804,0.36041666666666666,127,0.38254695833333335,0.003751208232902729,-5.864747033622784e-06,33.597333333333346,0.014126413400277262,-3.8194454805353215e-06,87.17233333333334,0.24195982219276646,0.730000000000004,0.00030343758231271166
S093,14217.0,14246.984375,N2,-0.32291145833333296,56.58586499195708,-113.02,101.62,214.64,5.869999999999999,19.71469937901462,703.125,702.9052734375,0.24393467007354425,0.0,0.4076045792867832,65.15907046600161,0.3773738287641604,65.37583651472461,0.0,0,0.3721808916666667,0.002853988477539912,-4.312150692315193e-06,33.592000000000006,0.014922019523732656,1.0069447175956654e-05,86.75800000000001,0.35944772452564877,1.3700000000000045,-0.0006346529499384085
S093,14247.0,14276.984375,N2,0.19160937500000016,54.347234296614964,-122.88,116.73,239.61,5.21,48.03783190361078,687.5,677.0182291666666,0.2701734750067486,0.10197698542100347,0.4581391634160471,65.0893923090738,0.42716175954433594,65.76473218982953,0.0010416666666666667,1,0.36659716666666664,0.002550796997454368,-2.9025385477806373e-06,33.589333333333336,0.01504068556357105,-4.861112429773013e-07,85.72299999999998,0.15522349478520797,0.5,-0.0002567709029868982
S093,14277.0,14306.984375,N2,0.0246354166666667,56.88451718423692,-131.53,132.29,263.82,5.715,28.112355674824364,703.125,701.2451171875,0.4169257007316238,0.045595976308831845,0.35398126274564307,65.17067434381839,0.3444157932442373,65.87867636800242,0.0010416666666666667,1,0.3594018583333334,0.0034783548704711777,-5.5930412307512025e-06,33.58533333333334,0.012310790208413427,-8.54166898374324e-06,86.27533333333332,0.2592776289788389,0.8799999999999955,0.0002797917425650327
S093,14307.0,14336.984375,N2,-0.42226041666666725,57.305030279262425,-119.8,110.56,230.36,4.11,29.229522142811298,687.5,698.9664713541666,0.3929721152109057,0.032258047015004204,0.35168246410015325,65.1753719024463,0.34013092255548577,66.29479617586888,0.0010416666666666667,1,0.350156475,0.0028509794456247775,-4.245050413696394e-06,33.58133333333334,0.01431394036905674,-2.013889435191207e-06,86.24233333333335,0.12789796280195065,0.4000000000000057,-9.718752636380511e-05
S093,14337.0,14366.984375,N2,0.3667968749999994,57.526743135986244,-127.15,129.48,256.63,3.995,15.119163697250906,687.5,691.8131510416666,0.32953401179628716,0.0,0.3992166265707825,65.14679858317349,0.38030824790303497,65.37583651472461,0.0,0,0.34311046666666667,0.0031607330661660754,-4.929575555982964e-06,33.574,0.013063945294845006,-5.694445989162892e-06,86.091,0.20863604674168817,0.7199999999999989,0.00022961811784345741
S093,14367.0,14396.984375,N2,-0.7520885416666665,54.897078918782896,-111.51,111.04,222.55,0.95,32.98060934574543,687.5,692.8466796875,0.3086832895766936,0.0,0.39197129111142254,65.16887059970246,0.36596415020373263,65.37583651472461,0.0,0,0.336459425,0.0024398622695502676,2.5047337523691237e-07,33.576,0.0128062484748677,-2.0138894351916766e-06,86.69900000000001,0.059852596713370725,0.21000000000000796,4.0243066472188194e-05
S093,14397.0,14426.984375,N2,0.10165104166666682,52.30354888107796,-114.66,108.89,223.55,2.7350000000000003,21.014933647623614,671.875,676.8147786458334,0.21721684953571674,0.12801909579781015,0.486447180457447,65.01184686490053,0.4429735297453218,66.16645675869307,0.0010416666666666667,1,0.3511599,0.005650916935035112,6.6424275831238006e-06,33.57466666666667,0.014313940369057579,-3.958334407101053e-06,87.29833333333333,0.2887684578035181,1.0300000000000011,0.0005185765295617758
S093,14427.0,14456.984375,N2,0.027625000000000042,54.549591059659114,-134.68,127.2,261.88,3.0300000000000002,22.6534772323542,687.5,689.2171223958334,0.15067844257077903,0.0,0.49434299833212964,64.98087821417853,0.4519032131944322,65.37583651472461,0.0,0,0.34999645,0.005178791015365774,-8.98292648191364e-06,33.568000000000005,0.014000000000002188,1.2569447854127359e-05,87.816,0.2548803640926468,0.7600000000000051,0.00026256951567098653
S093,14457.0,14486.984375,N2,0.8706562499999999,59.367923136910974,-136.88,123.49,260.37,4.5600000000000005,18.14405462786255,687.5,687.4593098958334,0.10152910775842668,0.0,0.4695306000411475,65.0711795545824,0.4293014193194339,65.37583651472461,0.0,0,0.34877925,0.005476349392691566,5.041650673190903e-07,33.58333333333334,0.013984117975603306,1.1805558758019826e-05,87.93633333333334,0.2404091419966284,0.7999999999999972,-0.00039975705288548445
S093,14487.0,14516.984375,N2,-0.5661614583333332,57.72087661038983,-151.22,143.59,294.81,2.8,20.382437980723132,687.5,693.0908203125,0.1529193630552463,0.07210109366946754,0.4699106002445808,65.06481422454993,0.43199142522678186,65.49045732013177,0.0,0,0.33435634999999997,0.0032458540597968943,-4.998573838588817e-06,33.57933333333334,0.011234866364236902,-3.6111120906885226e-06,87.673,0.2040449296927845,0.6099999999999994,6.628474020310919e-05
S093,14517.0,14546.984375,N2,-0.2873906249999999,55.24843724989645,-111.86,125.79,237.65,1.69,21.670001580270018,687.5,683.5774739583334,0.10152910775842669,0.0,0.48543790189603264,65.0234259310345,0.4459505106349959,65.37583651472461,0.0,0,0.3516511583333333,0.013812874771987081,1.2465038320594162e-05,33.577333333333335,0.015902480589170265,2.4305562148861594e-06,87.493,0.07128113354878385,0.25,1.2465281159201374e-05
S093,14547.0,14576.984375,N2,0.5087291666666665,53.02317643365163,-130.04,123.3,253.33999999999997,2.42,36.47809174422844,687.5,690.1041666666666,0.4190439991980423,0.12068956964966865,0.4155075021885886,65.0998809482418,0.3863295545819118,65.76473218982953,0.005208333333333333,5,0.35432022500000004,0.010275293370071804,1.5046174437438804e-05,33.58333333333334,0.01299572579307968,4.1666677969482465e-06,87.321,0.26102809555039674,0.75,-0.00025135423485086886
S093,14577.0,14606.984375,N2,-0.8278645833333333,53.44469040827001,-109.44,122.01,231.45,0.655,17.647245168221488,687.5,688.1022135416666,0.2582808246366733,0.0,0.4141054092022411,65.14732346828896,0.3862144285136756,65.37583651472461,0.0,0,0.4242574583333333,0.01717375537843322,-2.5969242938705226e-05,33.58200000000001,0.012220201853216399,1.6666671187788246e-06,87.635,0.08377549363228795,0.28000000000000114,6.795140732188899e-05
S093,14607.0,14636.984375,N2,0.8594791666666666,56.91130671876254,-181.22,136.48,317.7,2.83,16.150178632217425,671.875,681.5999348958334,0.2469409194692798,0.032258047015004204,0.49914858064063,64.93625255476549,0.45618433084726967,65.76473218982953,0.00625,5,0.39923342500000003,0.00296605717427053,-3.7593619138894127e-06,33.57466666666667,0.013349989596334691,6.597224011834505e-06,86.62100000000001,0.7674692176237428,1.9699999999999989,-0.0013193406356718296
S093,14637.0,14666.984375,N2,0.025604166666666886,57.63520545791998,-119.14,130.68,249.82,1.69,17.373780607983374,687.5,695.166015625,0.10703853634971328,0.0,0.4979896651510171,64.8769829461217,0.4587124828967184,65.76473218982953,0.45416666666666666,223,0.3884934666666666,0.004109414382312345,-4.1548991305607416e-06,33.574,0.013063945294845659,3.6111120906885226e-06,85.22666666666667,0.1540634789804376,0.46999999999999886,-0.0002754167413782402
S093,14667.0,14696.984375,N2,0.3585000000000002,55.41721988263967,-147.1,119.93,267.03,1.9849999999999999,30.078811967939647,687.5,696.77734375,0.37655781751353334,0.12478714516015753,0.49972214501883155,64.96742821776824,0.46540745853653065,67.11929677819934,0.009375,8,0.37635503333333337,0.0040670975767602285,-6.552737888655034e-06,33.57266666666667,0.018427033281448374,1.1527780904889223e-05,85.979,0.8198225417735236,1.9500000000000028,0.0014058684369217768
S093,14697.0,14726.984375,N2,0.2870468749999999,53.445709227895954,-152.69,189.2,341.89,-1.7349999999999999,88.4354942133259,671.875,637.7848307291666,0.761346463510536,0.7643732681455805,0.5240691151937881,64.81021465369885,0.4548734712120612,66.53570470055908,0.12395833333333334,76,0.3668001,0.00397216880180085,-6.3976111104630825e-06,33.56733333333334,0.015260697523014602,-1.7222226894052732e-05,87.59833333333333,0.5480090226345621,1.3599999999999994,0.0009454516453590604
