participant_id,window_start_time,window_end_time,sleep_stage,BVP_mean,BVP_std,BVP_min,BVP_max,BVP_range,BVP_median,SDNN,median_nni,IBI_mean,x_std,y_std,z_std,mag_mean,mag_std,mag_max,movement_density,burst_count,EDA_mean,EDA_std,EDA_trend,TEMP_mean,TEMP_std,TEMP_slope,HR_mean,HR_std,HR_range,HR_trend
S094,6526.0,6555.984375,W,-0.8938802083333324,214.15194873032573,-1018.92,1141.13,2160.05,5.115,0.0,765.625,765.625,15.081592289883183,12.21785731322759,15.89568175850625,66.44993523688852,4.635670431194903,116.2497311824849,0.03854166666666667,17,0.07788488333333334,0.020267963687875888,1.7869520038389773e-05,33.03666666666666,0.04721110980361384,-1.9444449719094514e-06,71.51100000000001,1.102921423613971,3.3100000000000023,0.0018163546593844041
S094,6556.0,6585.984375,W,1.0404270833333336,156.49671371524633,-649.99,520.36,1170.35,-1.4,0.0,765.625,765.625,10.741071419294029,6.147435437367132,6.576863909865316,65.77951200391539,4.650444479841191,123.71337841963576,0.029166666666666667,8,0.09757220000000003,0.016611678722412936,-1.9281245681761523e-05,32.98733333333333,0.03595676416043065,-3.4097231471687685e-05,69.56066666666668,1.0443177464524647,3.4200000000000017,-0.0018056254898072613
S094,6586.0,6615.984375,W,-1.0649375,172.5915854103996,-782.23,739.15,1521.38,-0.004999999999999999,91.7822585858106,984.375,930.0618489583334,31.372040430771005,8.228678189616112,9.843074050866088,65.73752043301809,7.651475281617054,184.50203250912983,0.04375,17,0.052923366666666666,0.021946985306997305,-1.1670623825581549e-05,33.088,0.027495454169735756,1.618055994481272e-05,67.97733333333332,0.7570466006498905,1.9299999999999926,-0.001287014238013844
S094,6616.0,6645.984375,W,-0.05780208333333352,160.4660065509151,-820.85,740.01,1560.8600000000001,2.565,0.0,984.375,984.375,25.55323740004902,18.618094328231624,16.095912037893264,66.40972276845042,9.159112774584605,171.5488268686207,0.04375,19,0.050723891666666666,0.015540941613898343,-6.3766694815184104e-06,32.983000000000004,0.09292111349598295,-0.00012635420094243816,73.953,4.221673562305197,13.419999999999987,0.007602120117762614
S094,6646.0,6675.984375,W,0.9401927083333335,185.3354213989304,-1051.47,1229.15,2280.62,4.59,0.0,984.375,984.375,9.718049892164437,2.920932706048513,9.563651664491038,65.15620644008116,1.9105005463298679,94.30800602281866,0.026041666666666668,11,0.05637176666666667,0.010536354754478524,-8.84702019504671e-06,32.87333333333333,0.040770359603787096,-5.3194458874363196e-05,87.48533333333332,3.9106314352316827,13.08999999999999,0.007049515801192436
S094,6676.0,6705.984375,W,1.8432656250000008,138.2358997835624,-845.65,623.92,1469.57,5.6850000000000005,0.0,984.375,984.375,21.420254213748194,28.414358410650216,16.44723768917342,66.296688518863,10.242381710301883,183.53201355621857,0.06875,30,0.037783975,0.018571130794624264,-2.7933673593118917e-05,32.831,0.027850792927072134,7.118057486453795e-06,96.15633333333334,1.2130745603172497,4.3500000000000085,0.0021294102998617344
S094,6706.0,6735.984375,W,-2.1931874999999987,289.13813889991496,-1254.45,1298.98,2553.4300000000003,5.705,0.0,984.375,984.375,15.611855269525055,9.608242085429687,9.800375338262986,66.07284871685064,7.0656531266992975,128.6118190525272,0.06458333333333334,22,0.014220975,0.005538688124550946,5.458743451265041e-06,33.084666666666664,0.11409742425761425,0.00014812504018148881,95.586,2.6485827656818026,9.0,-0.004653404040094412
S094,6736.0,6765.984375,W,-1.424208333333334,112.45873296550425,-745.12,388.05,1133.17,0.375,0.0,984.375,984.375,2.2835174709054793,2.0064122468143646,2.7428788401234976,65.56162870745014,0.6157038463820774,74.95998932764064,0.065625,43,0.024940266666666665,0.006517976141325534,-2.7809881675857657e-06,33.12999999999999,0.039242833740696724,-4.416667864764544e-05,80.37566666666667,6.108826774066815,20.349999999999994,-0.010998232150128077
S094,6766.0,6795.984375,W,1.5299947916666667,65.14402549231758,-541.36,351.6,892.96,0.33,158.53460719749378,734.375,839.4368489583334,0.2164436953664599,0.5696221563823397,0.5304681747051372,65.65657801956769,0.3357396219587292,67.11929677819934,0.13958333333333334,73,0.01613204166666667,0.004195695743647755,-3.552702786648974e-07,33.01766666666666,0.03711992576620922,2.2812506188287877e-05,66.17466666666668,0.9066448526787596,3.489999999999995,-0.0009245835841426828
S094,6796.0,6825.984375,W,-0.3351979166666669,31.07370702697586,-79.6,65.55,145.14999999999998,1.0950000000000002,103.77126161805657,906.25,981.005859375,0.3495470779769475,0.34638510200193207,0.47906588614081974,65.4693942032512,0.35807028076054015,66.43794096749237,0.04479166666666667,40,0.023199974999999994,0.0022666362576238383,3.475136576371685e-06,32.977000000000004,0.021931712199461037,-2.6770840595388987e-05,65.20366666666666,0.5795543306905931,1.8499999999999943,-0.0007701043755708479
S094,6826.0,6855.984375,W,0.1483854166666667,34.147963369562085,-73.88,83.35,157.23,-0.8,34.25493078171086,984.375,989.0380859375,0.49335427179664704,0.13981246740425785,0.4792017650188929,65.63238865465395,0.42814656888816316,66.43794096749237,0.13020833333333334,94,0.028943908333333334,0.0020152959832070716,3.108854792983614e-06,32.97466666666667,0.013349989596334192,-4.5138901133597655e-06,62.35733333333333,1.5261606148181852,3.970000000000006,-0.0026765979482958834
S094,6856.0,6885.984375,W,0.05980208333333327,31.973821882817862,-85.06,70.81,155.87,1.135,109.04545836366526,968.75,1037.9313151041667,0.478576402744524,0.15351424449831647,0.3247177593909654,65.61312975642237,0.36158710367986935,66.43794096749237,0.06979166666666667,56,0.03249916666666666,0.0013834072691084934,1.8231398174749924e-06,32.970000000000006,0.017126976771553417,1.833333830656991e-05,58.54600000000001,0.8332690641883537,2.6000000000000014,-0.001133541974159608
S094,6886.0,6915.984375,W,-0.1966041666666669,34.130913982805225,-74.67,66.93,141.60000000000002,0.8200000000000001,147.0837986968462,984.375,967.0735677083334,0.2943625410196677,0.14311453746329664,0.254795584597841,65.74406328964295,0.24241940396811676,66.43794096749237,0.058333333333333334,52,0.0364708,0.001559573294205822,2.2739980126947717e-06,33.00633333333334,0.016629959577688237,2.1770839239051304e-05,57.592333333333336,0.6598771771238107,2.270000000000003,-0.0010397572264966436
S094,6916.0,6945.984375,W,0.10220312499999995,34.43175169796027,-69.26,93.14,162.4,1.1749999999999998,58.42951100638395,1015.625,1018.6116536458334,0.18483053424390922,0.2673169155390907,0.3121091305537215,65.78804673717272,0.2340544970195644,66.43794096749237,0.10208333333333333,69,0.04007935833333332,0.0010745067844972203,6.735216670794448e-07,33.07133333333334,0.02124983660068094,3.055556384428604e-05,56.967999999999996,0.6724353748378601,1.9400000000000048,0.0011251391941024288
S094,6946.0,6975.984375,W,-0.5090989583333334,31.324736873239768,-66.15,67.87,134.02,-0.69,136.1923379527476,953.125,986.5966796875,0.2986060642338368,0.04564354645876384,0.16532992583014122,65.72097812750596,0.21142523631218818,66.43794096749237,0.021875,20,0.04235365,0.001425601040789463,1.4060003814020126e-06,33.13033333333333,0.02523005262688683,4.086806664172559e-05,56.376,0.8645407258577621,2.5,-0.0005717362662044977
S094,6976.0,7005.984375,W,0.262244791666667,32.26213715753076,-77.07,72.73,149.8,0.325,187.56282177831514,1031.25,1075.5859375,0.36098672403643267,0.14037013942312185,0.22008274564480412,65.70000687688803,0.2616703591652103,66.82065548915246,0.03854166666666667,31,0.04373080000000001,0.0012257205880623866,1.1636865135868374e-06,33.193666666666665,0.02664374014452337,4.052084432531577e-05,57.782999999999994,0.41283693310232467,1.3200000000000003,0.00029177091248125804
S094,7006.0,7035.984375,W,0.34715104166666666,28.809614466103497,-50.48,54.66,105.13999999999999,-1.0750000000000002,111.78511461670388,1000.0,1067.3258463541667,0.28558389261690204,0.17677362623014656,0.03225804701500421,65.72113578390395,0.1909919902132832,66.15134163416491,0.028125,24,0.04636791666666666,0.0011963441017208314,8.383782656191046e-07,33.272666666666666,0.025157283018818102,3.6666676613139205e-05,56.288999999999994,0.6108101177943931,1.9299999999999997,-0.0007423960347211474
S094,7036.0,7065.984375,W,-0.12635416666666674,27.397933431031483,-54.52,56.65,111.17,-1.9899999999999998,115.43031374264271,1140.625,1167.8792317708333,0.2221950938302244,0.26339134382131846,0.032258047015004204,65.76142290326946,0.17334763918221308,66.43794096749237,0.07083333333333333,61,0.04812978333333332,0.0012124697190949644,1.1182924040506739e-06,33.347,0.03308070938376782,5.246529200989928e-05,52.516,1.5890575823424395,4.269999999999996,-0.0027526396355901784
S094,7066.0,7095.984375,W,-0.3986145833333334,28.587916183703456,-54.54,56.79,111.33,-2.87,81.68949041817322,1187.5,1193.2942708333333,0.12401959270615269,0.2900232719350102,0.05581428468591172,65.78859275399358,0.14296310426089864,66.15134163416491,0.09166666666666666,78,0.050136799999999995,0.0013928318491476276,1.5145160358387677e-06,33.42399999999999,0.02138535324312887,3.0902786160697295e-05,50.254,0.35176317790998707,1.0700000000000003,-0.00014305559436186903
S094,7096.0,7125.984375,W,0.39524479166666665,29.419609865319035,-52.45,62.61,115.06,-0.045,124.53177070801308,1031.25,1082.7311197916667,0.03225804701500421,0.28256636388643286,0.07198059875565237,65.79443745452964,0.12213397828404736,66.15134163416491,0.0875,68,0.05237863333333334,0.0014341234194525313,1.6442608627009718e-06,33.489000000000004,0.02256102834535701,3.1493064098596065e-05,51.23166666666666,0.7901184861919269,2.6300000000000026,0.0013402434191198507
S094,7126.0,7155.984375,N1,-0.04148437499999987,29.88274068363511,-54.56,56.87,111.43,-0.63,67.36676994185575,1031.25,1046.6227213541667,0.06441510347391795,0.10152910775842668,0.06441510347391795,65.76867300007929,0.06759049716967576,66.40783086353596,0.013541666666666667,13,0.05528294999999999,0.0012339981959062982,1.1662958892946745e-06,33.57933333333334,0.0276807193227033,4.111112226321899e-05,55.743333333333325,1.1744625248266642,3.6599999999999966,0.001935486636145463
S094,7156.0,7185.984375,W,-0.3619583333333332,29.67049597450747,-52.44,60.53,112.97,-2.475,128.90125200748525,984.375,1068.8802083333333,0.07210109366946756,0.19249988726547929,0.1682735042192389,65.76227651300545,0.13719023414382106,66.40783086353596,0.03958333333333333,30,0.056307849999999986,0.001372430864378968,7.864060292985107e-07,33.64433333333332,0.018381754238614885,2.4340284380500584e-05,56.153999999999996,0.4290656515422011,1.6000000000000014,-0.00047270846156371055
S094,7186.0,7215.984375,W,-0.1146093749999998,41.952430229237955,-291.03,252.86,543.89,-0.825,119.70326548062995,953.125,1002.8564453125,0.17677362623014653,0.2760220118788838,0.4007791348493027,65.68223364560843,0.29477390833357914,66.79071791798619,0.07708333333333334,63,0.056329258333333326,0.0011209178344540795,2.3337462927913808e-08,33.705333333333336,0.02753583523741833,3.9930566387414974e-05,54.346999999999994,0.536091721008013,1.6300000000000026,-0.000826979390999184
S094,7216.0,7245.984375,N1,0.42914062500000016,28.536910819239434,-50.25,62.35,112.6,-1.5950000000000002,97.13054982283401,984.375,1012.6139322916666,0.11557806855349137,0.14282613750835507,0.21358993356949718,65.74964652392211,0.16962796338148428,66.40783086353596,0.03333333333333333,31,0.058539025,0.001201637101780316,7.70879766406186e-07,33.791333333333334,0.02186829262247505,2.9027785652067375e-05,54.852,0.5831089092099346,2.1000000000000014,0.0006025001634386299
S094,7246.0,7275.984375,N1,-0.14508333333333334,28.497147011684444,-66.59,71.81,138.4,-3.3099999999999996,110.37009084586374,1015.625,1052.0589192708333,0.10152910775842672,0.1998263134713633,0.26506476868347145,65.73701657764467,0.1986029635618948,66.40783086353596,0.04583333333333333,40,0.0607382,0.0012541949051084532,1.3482169455883648e-06,33.85933333333334,0.023371397523942638,3.659723214985469e-05,54.42666666666667,0.7397537127690245,2.1000000000000014,-0.000740139089664467
S094,7276.0,7305.984375,W,0.10274479166666668,28.918486817429933,-58.44,70.64,129.07999999999998,-1.345,59.2321898084352,1000.0,999.4466145833334,0.09090593428863096,0.1561249499599599,0.22428271082497642,65.74446032771455,0.16551299314176454,66.40783086353596,0.029166666666666667,27,0.06175255,0.0012335305620453849,6.828895081623026e-07,33.92133333333333,0.020450482200238606,2.993056367474289e-05,55.620333333333335,1.0811551949445348,3.3999999999999986,0.001628299052815498
S094,7306.0,7335.984375,W,0.2397291666666664,45.746852493386356,-248.1,202.08,450.18,-2.6550000000000002,42.68068488624498,1046.875,1021.4192708333334,0.7639643270831142,0.32177216534201475,0.6323860445764122,65.75918575413336,0.26869552790517937,66.97014260101288,0.10625,76,0.060984025,0.003953753569842419,-2.802199110839602e-07,33.97966666666667,0.01888267871769134,2.5173617939891647e-05,60.04466666666667,1.1384660244771858,2.979999999999997,0.0019597227538310415
S094,7336.0,7365.984375,N1,-0.2605416666666668,27.963501599151776,-65.97,72.76,138.73000000000002,-2.605,125.03502434555108,1062.5,1072.4853515625,0.08533405557962581,0.4782600118020415,0.41339864235384227,65.79706444763072,0.30183064952920524,66.19667665374146,0.23020833333333332,152,0.06579901666666667,0.0013816448107439035,9.69393058103585e-07,34.02233333333333,0.018381754238615825,2.2812506188287888e-05,59.285666666666664,1.499825952865495,4.850000000000001,-0.0026775354485501983
S094,7366.0,7395.984375,N1,-0.07585937499999999,30.025062843242164,-61.53,87.22,148.75,-1.26,92.20041303121492,1093.75,1030.37109375,0.28558389261690204,0.4835802171190307,0.3353843152100123,65.51948980988728,0.330083401697557,66.82065548915246,0.13020833333333334,97,0.065393375,0.001230869625254843,1.7763872006258598e-07,34.056333333333335,0.019745604292827325,2.5034729013328557e-05,55.53100000000001,0.21079769132195628,0.8299999999999983,2.1006950142944424e-05
S094,7396.0,7425.984375,N1,0.2740156250000002,34.945419122924235,-165.25,160.04,325.28999999999996,1.05,24.196945821242494,937.5,951.1881510416666,0.4940224283595049,0.37728470681966425,0.20790581133986824,65.73202724207181,0.3826590922258167,67.49814812274482,0.3770833333333333,181,0.05746079166666666,0.00633205400310704,-3.922913173533302e-06,34.09066666666668,0.01824524291120543,1.9236116329240437e-05,57.825,1.5668753407126337,4.789999999999999,0.002791493812796715
S094,7426.0,7455.984375,N2,-0.26345312499999995,53.781191790622096,-228.0,308.87,536.87,2.245,19.115800394364967,921.875,929.150390625,0.7147260547463856,0.7942330933656834,0.4043169823569402,65.73648030398043,0.35874630459343254,67.45368781616021,0.3072916666666667,118,0.04648535833333334,0.009268542996605808,-1.5326848124687527e-05,34.13666666666666,0.014681810363695627,1.96527831089345e-05,62.870999999999995,1.2416960175501888,3.8999999999999915,0.002208924210320152
S094,7456.0,7485.984375,N2,0.1329270833333331,40.94033858065722,-208.13,236.08,444.21000000000004,1.555,106.63962606320058,921.875,856.4371744791666,0.4919093680637611,0.24206145913796356,0.10206207261596575,65.58653370817262,0.31346899910701426,66.34003316248794,0.4125,116,0.027011566666666664,0.0020228815286340647,2.5851612915476626e-07,34.18499999999999,0.027172289806590644,4.274306715035533e-05,66.123,0.6401309761811771,2.25,0.0011326739183685761
S094,7486.0,7515.984375,W,0.23624479166666662,23.350937289639152,-49.05,48.2,97.25,0.94,48.89886368998201,953.125,965.9505208333334,0.4353917456983104,0.0,0.03225804701500421,65.76801882116067,0.27001606024228225,66.59579566308972,0.0010416666666666667,1,0.031079275,0.0029425110533989503,4.473852993124184e-06,34.22666666666667,0.013743685418724812,1.6458337797942264e-05,65.68933333333334,0.9727244670968705,2.6000000000000085,-0.0017113199086696812
S094,7516.0,7545.984375,W,-0.14979687500000002,26.047865589749517,-120.58,99.81,220.39,0.26,131.4858086857207,937.5,964.9332682291666,0.5059015862107525,0.3223432408637655,0.4190763653560053,65.69511619522895,0.30896293526675983,66.82065548915246,0.015625,12,0.044488824999999996,0.002787218627540426,4.260929324253833e-06,34.20633333333333,0.02994253756039319,-4.6562512630889295e-05,63.542,0.5699497053834363,1.6700000000000017,-0.0008415974505201406
S094,7546.0,7575.984375,N2,-0.2127343749999999,22.886187960123678,-44.96,41.69,86.65,-0.18,61.12090276773617,968.75,978.2633463541666,0.5417307654381669,0.09681898021852718,0.2709855341567557,65.78762156805394,0.27442075697659574,67.45368781616021,0.008333333333333333,6,0.04511885,0.00458729167129146,-2.60006754559124e-06,34.19966666666666,0.02089391192562008,2.3854173137525156e-05,62.74733333333334,0.1382975857425659,0.44000000000000483,-0.0002261806169109755
S094,7576.0,7605.984375,W,0.026755208333333277,37.986191452762284,-107.14,213.88,321.02,-2.545,34.874881318808384,984.375,969.6207682291666,0.5025099760618357,0.465520122416851,0.4248046426005723,65.71005290216965,0.3570563831274459,66.59579566308972,0.22708333333333333,126,0.050862625,0.0029981321492514304,4.525058302153402e-06,34.26933333333333,0.021592179654269524,3.0902786160696136e-05,61.858,0.37862382386743776,1.1999999999999957,-0.00018687505069310198
S094,7606.0,7635.984375,N1,0.21403645833333323,24.05783558273175,-183.69,72.8,256.49,1.7,75.88080850161752,906.25,922.2412109375,0.3754496725224597,0.47729594061814057,0.4061164310337068,65.78240188792834,0.3204452970720827,66.55073252789934,0.11770833333333333,70,0.05314738333333334,0.0020921200299510116,-3.607027888191155e-07,34.311,0.014685593847940376,1.4965281837370619e-05,62.64133333333334,0.4556733722988669,1.1699999999999946,0.000779583544808903
S094,7636.0,7665.984375,N2,-0.04755208333333346,30.457565701921595,-227.32,101.8,329.12,0.225,29.816979811651503,953.125,952.9622395833334,0.18483053424390922,0.3259334884434075,0.11110243021644486,65.83090026813758,0.19057777028287645,66.55073252789934,0.0125,12,0.05134309166666667,0.0012612816827592029,8.982330995641e-07,34.327666666666666,0.009551032521262565,1.0451391724010458e-05,63.32166666666667,0.1899663712929798,0.6000000000000014,7.420140901731049e-05
S094,7666.0,7695.984375,N2,0.10048437499999979,39.4877120315185,-232.92,256.49,489.40999999999997,-0.28,84.05275700424818,859.375,875.8463541666666,0.12068956964966865,0.6230516506478416,0.382617935250035,65.7543214902942,0.2550268306837593,66.94774081326419,0.11354166666666667,65,0.05213316666666666,0.002199159514956162,2.8917264788754555e-06,34.36266666666666,0.02048305532764849,1.597222655496457e-05,63.682,0.23044015853723565,0.8299999999999983,0.0003345139796316128
S094,7696.0,7725.984375,N2,0.08343750000000037,119.1576567141208,-553.3,416.52,969.8199999999999,1.935,61.1612061038909,875.0,911.2548828125,1.4605206810320155,1.0863559595424206,1.1811434402259908,65.72163947375553,0.6514892286369132,78.24321056807422,0.035416666666666666,27,0.036075675,0.01210804274725585,-1.5907046632770896e-05,34.38566666666666,0.05096948978446747,6.635418466639303e-05,64.131,0.07867019766086898,0.3299999999999983,-3.2951397827526466e-05
S094,7726.0,7755.984375,N2,-0.37496354166666646,111.54871402543303,-575.83,434.67,1010.5,6.34,0.0,1031.25,1031.25,0.4141997283081624,0.47028798616438794,0.5631468117615709,65.61106594554674,0.30534213998357157,67.08203932499369,0.103125,69,0.041713016666666665,0.007764630404364969,7.427710348228721e-06,34.40266666666666,0.03794147540035292,-5.569445955253481e-05,63.958666666666666,0.37602068501022107,1.1699999999999946,0.0005467362594228145
S094,7756.0,7785.984375,N2,0.36967708333333305,144.16056376701948,-514.96,739.68,1254.6399999999999,-0.885,0.0,1031.25,1031.25,0.565246957766151,0.5740330033098174,0.5372970789439179,65.70153084434351,0.36868420512904904,68.36665854054884,0.234375,111,0.047510325,0.006316771554312773,-4.685274491448158e-06,34.33433333333334,0.025649344804280303,-2.1701394775769127e-05,66.79566666666666,1.4348047099015104,4.5,0.0025826743117063574
S094,7786.0,7815.984375,W,-0.04492708333333297,41.99224669997248,-132.36,121.97,254.33,1.9949999999999999,10.627831474452595,937.5,938.720703125,0.09107288747664329,0.20453835214941968,0.17435396627423064,65.72246362137614,0.15634002543877568,66.40030120413611,0.04479166666666667,28,0.05562445833333333,0.0025115951800128715,3.979268657570707e-06,34.288666666666664,0.03528298299306412,-5.736112667131175e-05,67.78033333333333,0.4024796751252026,1.519999999999996,-0.0006305904488363849
S094,7816.0,7845.984375,N2,0.48689062499999985,157.6009853298715,-694.14,593.25,1287.3899999999999,-10.08,0.0,937.5,937.5,0.4216164331079455,0.24016912082368583,0.38097098168874866,65.68695873108403,0.17534060434578824,66.40030120413611,0.06041666666666667,30,0.062991175,0.001987174927975643,1.6321855556058914e-06,34.254,0.012000000000001875,6.388890621987387e-06,65.86366666666667,1.4346671700742613,3.780000000000001,-0.002528368741419472
S094,7846.0,7875.984375,N2,-3.1628593749999987,208.08601223813127,-705.87,756.94,1462.81,-13.61,0.0,937.5,937.5,0.20395397084200695,0.28685767618958513,0.13306858481207684,65.71381567632146,0.1815789776312996,66.34003316248794,0.10416666666666667,63,0.067560725,0.0028396502395028043,3.5445615083988463e-06,34.275999999999996,0.012806248474864591,1.1875003221299237e-05,65.47600000000001,0.9502652261342637,2.950000000000003,0.0011932642125825252
S094,7876.0,7905.984375,N2,2.590609374999999,114.62029648243984,-465.13,435.06,900.19,-0.415,0.0,937.5,937.5,0.1356408400888169,0.03225804701500421,0.0,65.69240054344642,0.08642437582775754,66.30987860040162,0.01875,16,0.07300564999999999,0.001312460752746534,1.5439834917489924e-06,34.26,0.011254628677423884,9.652780396262933e-06,66.681,0.6235829268562979,1.8100000000000023,0.000821562722863153
S094,7906.0,7935.984375,N2,1.1980677083333335,135.92738925796007,-564.67,435.48,1000.15,-0.7150000000000001,0.0,937.5,937.5,0.40515343458442454,0.07198059875565235,0.3892601154755005,65.7021110644097,0.1890150257918215,66.40030120413611,0.05625,44,0.07486320833333335,0.0011664515699035937,4.448503810900528e-08,34.28733333333334,0.01339983416149386,2.36111175160465e-06,67.16433333333335,0.9658146244952446,3.1500000000000057,-0.0008082988303762023
S094,7936.0,7965.984375,W,-1.3142864583333336,75.51611781193927,-424.61,392.52,817.13,-0.42500000000000004,0.0,937.5,937.5,0.36210317120569685,0.1439611975113047,0.3342289400620479,65.67428628688495,0.25939810127568635,66.34003316248794,0.07708333333333334,55,0.07224765000000001,0.0023054022449094064,2.7515024825039267e-06,34.32266666666666,0.011527744310526184,5.347223672748807e-06,66.26033333333334,0.5522528607641796,2.219999999999999,0.0002837153547404933
S094,7966.0,7995.984375,W,1.060796875,71.00183368480404,-251.94,294.54,546.48,-3.115,0.0,937.5,937.5,0.0911919526176637,0.257786720091543,0.28332567391607844,65.70606132775438,0.17959619534978408,66.34003316248794,0.07291666666666667,50,0.07442559166666667,0.005063026518292251,-2.289964379873151e-06,34.308666666666674,0.010241527663824933,2.0833338984727418e-06,72.50833333333334,3.873603906212175,12.519999999999996,0.0066641337522064205
S094,7996.0,8025.984375,W,-1.413057291666666,91.11151831556508,-347.12,389.23,736.35,-0.0049999999999999975,212.0441708883195,515.625,719.3359375,0.06451609403000842,0.14311453746329664,0.09668440031302304,65.69134347513034,0.09407850863916524,66.34003316248794,0.027083333333333334,14,0.07424415833333332,0.002458010882793352,3.5782455453140047e-06,34.32133333333333,0.014313940369054402,4.79166796648938e-06,92.059,6.347765144783898,20.879999999999995,0.011433440601519261
S094,8026.0,8055.984375,W,-0.48172395833333304,78.08931368082672,-334.03,400.34,734.3699999999999,2.98,4.976850537571829,484.375,485.1888020833333,0.10172129679778086,0.38947608817986357,0.16827350421923892,65.74802573264364,0.19955097836449592,66.73829485385434,0.18229166666666666,60,0.0741374,0.0022062307880183333,-2.849125338846933e-06,34.31766666666667,0.013585122581542354,-6.215279463778654e-06,112.92066666666666,5.269218748754147,17.239999999999995,0.009362641428667922
S094,8056.0,8085.984375,W,0.06870312500000052,152.16664222686708,-588.84,432.4,1021.24,5.355,63.91823504669364,796.875,783.203125,0.37080407187923675,0.4481394794654401,0.5040622739718444,65.78577427261429,0.3440373322367569,66.73829485385434,0.020833333333333332,19,0.070166,0.0020035035354764585,-4.845617633902305e-08,34.32366666666666,0.011100550536896667,9.375002543127867e-07,125.37033333333333,2.7226120831942904,8.519999999999996,0.003969063576677402
S094,8086.0,8115.984375,W,1.1028541666666674,120.08302329525492,-443.46,389.84,833.3,3.45,0.0,796.875,796.875,0.43180318787099703,0.08507936450096985,0.10187052648664707,65.93493379457117,0.27787378222516074,66.73829485385434,0.0010416666666666667,1,0.06804113333333334,0.001421050948730863,-1.3161956695409244e-06,34.32466666666666,0.011175369742825968,6.944446328217572e-08,108.77433333333335,8.360774558748863,27.86,-0.015072399921983486
S094,8116.0,8145.984375,N1,-0.016255208333335838,203.01829656561407,-821.32,655.79,1477.1100000000001,0.019999999999999997,0.0,796.875,796.875,29.3508091696793,29.556477521826984,11.391517121366622,66.01493872106813,7.613772541932443,150.84429057806597,0.065625,21,0.05315819166666667,0.020644503379953962,-2.3395770452411686e-05,34.33833333333333,0.024641879437700888,2.1909728165616098e-05,80.10300000000001,7.761115963571219,23.86,-0.013765246789617725
S094,8146.0,8175.984375,W,0.02065104166666683,147.73990274522959,-683.33,848.39,1531.72,0.5700000000000001,32.50615147303899,796.875,807.5439453125,21.024766289451154,12.76799927770814,20.50522026606206,65.22191448542999,10.490809272338854,162.9846618550347,0.052083333333333336,19,0.09006675,0.0435627501303675,6.665685879363573e-05,34.186,0.1968180208551376,-0.00026972229538907807,76.66699999999999,2.6340363829428535,8.25,0.004723369336851492
S094,8176.0,8205.984375,W,-0.0551874999999999,36.14825581411009,-144.71,109.61,254.32,0.5549999999999999,28.086614905665133,984.375,973.291015625,0.6251527591095013,0.36699204313203054,0.47942022276912766,64.50679645328844,0.40860902341189065,65.46754921333164,0.146875,94,0.12784001666666667,0.0021323162874494505,3.325530850024639e-06,34.047333333333334,0.013399834161493858,9.444447006413546e-06,79.448,0.7724135334564417,2.319999999999993,-0.001019653054376369
S094,8206.0,8235.984375,N1,-0.24431770833333336,25.186024995129962,-72.36,62.41,134.76999999999998,0.37,64.94436564829128,937.5,941.0319010416666,0.5209906012561285,0.15612494995995993,0.49817265908908415,64.46922128374077,0.3718293534237665,65.06919393998976,0.17708333333333334,125,0.13267649166666667,0.0017252974429347663,2.4788008026260946e-06,34.08200000000001,0.02166410241236363,2.9444452431765735e-05,72.88433333333333,3.7777380210326337,12.260000000000005,-0.006810175458489436
S094,8236.0,8265.984375,N2,-0.16525520833333313,25.96207754104761,-58.87,113.56,172.43,-0.735,85.09801804281261,968.75,960.302734375,0.40272374517844806,0.17399263633843817,0.4998914812792428,64.45895017985895,0.3832319277682608,64.93843238021688,0.040625,33,0.13702195833333333,0.0015850153752978364,1.972720804231983e-06,34.11933333333334,0.013399834161495037,1.041666949236869e-05,64.34366666666666,1.9767489864814802,6.080000000000005,-0.0032060078141297257
S094,8266.0,8295.984375,N2,0.06927604166666661,27.118742232211552,-97.06,129.62,226.68,-2.075,49.51546391708726,937.5,949.9674479166666,0.3776512183329128,0.11557806855349137,0.506194269909181,64.44243948185935,0.37792454303421763,65.3834841531101,0.43854166666666666,226,0.14013917499999998,0.0014246168763478164,1.1483733583912138e-06,34.15133333333332,0.009568466729602978,1.0000002712672354e-05,60.48866666666666,0.3946537160037339,1.4000000000000057,0.0005997223849073317
S094,8296.0,8325.984375,N2,-0.10954166666666675,22.538437002114055,-62.34,47.71,110.05000000000001,-0.41000000000000003,39.753770308222414,1000.0,1001.3590494791666,0.2579886813839363,0.09090593428863097,0.4924682290231749,64.38679460876119,0.36236033060984013,64.93843238021688,0.384375,210,0.14220005000000002,0.001286628441897664,1.2171231600269027e-06,34.184666666666665,0.02459448899426298,3.500000949436164e-05,62.080000000000005,0.5833695226869503,1.5200000000000031,0.0009404863662343661
S094,8326.0,8355.984375,N2,0.28257291666666673,24.91975068312816,-78.06,56.63,134.69,1.03,68.98683108945717,921.875,934.2854817708334,0.23716167422714451,0.12801909579781012,0.48946807153843597,64.36879406893718,0.3594209844873626,64.93843238021688,0.3625,216,0.14437801666666666,0.0013312330373462834,1.5998862846913705e-06,34.25,0.020000000000001232,2.8611118872376323e-05,62.88533333333333,0.2739188849925385,0.9699999999999989,-0.00037743065794017424
S094,8356.0,8385.984375,N2,-0.5286510416666669,51.26361019893378,-316.98,313.75,630.73,0.665,98.60729932506985,937.5,875.09765625,1.9681488830984477,0.7194222399780257,0.7771447696893774,64.45208175177778,0.48733068391585066,68.0808343074613,0.0375,26,0.1470682,0.001440899080435546,1.3281175477749433e-06,34.305,0.020453198608855944,2.6562507205540366e-05,62.449000000000005,0.5361675733076994,1.6000000000000014,0.000890382185976072
S094,8386.0,8415.984375,N2,0.5212656250000002,90.81642083880597,-356.53,568.47,925.0,-1.05,38.78467604587818,937.5,950.6266276041666,0.7261955838764559,0.29577464206535503,0.42643624759615467,64.05997939576456,0.3450214692174464,65.49045732013177,0.246875,146,0.14855220833333332,0.0010311450342203226,8.287031327862261e-07,34.32533333333333,0.029858927568744476,3.236111988962764e-05,63.91466666666667,0.39107316735135605,1.1200000000000045,0.0005636807084637328
S094,8416.0,8445.984375,N2,0.06536458333333343,25.63522242996432,-68.58,90.74,159.32,0.595,28.29476325795506,921.875,921.5413411458334,0.2988403512840184,0.25654623798103576,0.36505326856349185,63.997943651968065,0.3073407221991441,65.23802572120036,0.22604166666666667,163,0.1510614916666667,0.0013436333763086421,8.182981820470341e-07,34.37566666666667,0.019779338265528454,2.656250720554165e-05,64.694,0.5611868375743203,1.4099999999999966,0.0009654863730160512
S094,8446.0,8475.984375,N2,-0.3051979166666667,29.020831951347105,-132.74,73.62,206.36,0.875,39.66141077691256,875.0,903.1575520833334,0.5673364607728136,0.4511559227879721,0.3102418411497714,64.05158800493334,0.3712466111348266,65.23802572120036,0.36354166666666665,189,0.15283364166666666,0.0013677343479627918,1.3785965111210103e-06,34.41533333333333,0.014544949486181577,7.361113107941495e-06,65.81233333333333,0.23073337185784082,0.8699999999999903,-6.97916855988821e-06
S094,8476.0,8505.984375,N2,0.18005729166666679,35.53848686850592,-136.12,338.21,474.33,0.905,88.83187250220875,906.25,882.1126302083334,1.5730753231241734,0.7063206700139031,0.5745006512301696,64.11225097947778,0.4626726824843839,67.36467917239716,0.03229166666666667,24,0.15554553333333335,0.0011158999427467635,4.0014594187986896e-07,34.449333333333335,0.022201101073796043,2.0069449888631032e-05,66.04799999999999,0.3421637035104682,1.4299999999999926,-6.38889062198637e-05
S094,8506.0,8535.984375,N2,0.060427083333333347,22.717930533705452,-52.03,63.89,115.92,-2.01,63.38710591456112,953.125,933.9925130208334,1.6100807514039992,0.37492910209427893,0.4889301937649177,64.22952990193346,0.3843135568376173,68.85491994040804,0.023958333333333335,11,0.15625031666666667,0.0010514750273095238,5.60372113816222e-07,34.481666666666676,0.014851112939963933,1.73263935889749e-05,68.39866666666667,0.510207365250205,1.8600000000000136,0.0008247224459425044
S094,8536.0,8565.984375,N2,-0.21685416666666676,48.66938658031076,-193.93,356.58,550.51,-1.225,41.51890302995449,968.75,970.0520833333334,0.5911639589732182,0.3580894882528978,0.26515685871238975,64.37674475401995,0.2856744226656866,65.19202405202648,0.019791666666666666,18,0.15808670833333335,0.0012073560120902888,1.2657475221754388e-06,34.52133333333333,0.022320892057043917,2.3402784126189076e-05,68.70133333333334,0.6523226877005657,2.6000000000000085,-0.0005496529268806778
S094,8566.0,8595.984375,N2,0.28803125,25.786539075226635,-49.81,62.85,112.66,-0.455,49.75024403672506,937.5,947.5992838541666,0.651570618454618,0.6138935040990416,0.3265172250646034,64.32784518324492,0.3942301533478391,68.14690014960328,0.025,22,0.159965525,0.0012518002234282383,1.0455386950788506e-06,34.55166666666666,0.02034425935955643,2.92013968102751e-05,64.26866666666666,0.9316785330192429,3.1499999999999986,-0.0015600698676404802
S094,8596.0,8625.984375,W,-0.14950520833333353,41.378905046268414,-197.08,371.06,568.14,-1.245,53.83151059268409,937.5,905.4117838541666,0.794577297433813,0.5301295373669428,0.5084688600073973,64.00485009692099,0.4183269104498837,65.19969325081216,0.06979166666666667,54,0.16184441666666666,0.0013040557796309485,1.1747121242166093e-06,34.565666666666665,0.025256462319353717,1.649306002958465e-05,62.931333333333335,0.8251776913018319,2.519999999999996,-0.0014036809363283786
S094,8626.0,8655.984375,W,0.03536458333333335,27.660794929232946,-85.09,75.67,160.76,1.915,31.841324946494925,937.5,924.2024739583334,0.43108390521258544,0.4801213315981238,0.3762940634958546,64.0565563822121,0.404764687794586,65.13831437794502,0.03854166666666667,35,0.16360626666666664,0.001199828340036843,6.173365389910338e-07,34.56933333333333,0.012092238098146593,2.847222994581335e-06,61.65733333333333,0.3458124090055508,1.1400000000000006,0.0005934723832119102
S094,8656.0,8685.984375,W,0.09096354166666669,23.84231642607678,-46.51,53.17,99.68,-1.75,61.78893861259675,968.75,996.9319661458334,0.32781235104858386,0.4990224819584785,0.3350201460567541,64.10805164525554,0.379700648648303,65.09992319503918,0.022916666666666665,22,0.16502641666666668,0.001240937049056975,1.1795966741527479e-06,34.57333333333334,0.013743685418727683,-9.375002543133665e-06,61.826666666666675,0.5398971095392976,1.5499999999999972,-0.0008827780172466403
S094,8686.0,8715.984375,W,-0.21733333333333363,48.579295640964396,-196.81,379.54,576.35,-1.615,118.86973340116168,906.25,821.6959635416666,4.562494173322002,1.8288012163406084,2.021015616778824,64.42002866121832,1.1196683829640965,78.17928114276826,0.03333333333333333,19,0.16238909166666668,0.006239899697372058,2.2058910063723397e-06,34.556000000000004,0.03199999999999995,-2.020833881519526e-05,62.316,0.39517591019696535,1.259999999999998,0.0005171529180644851
S094,8716.0,8745.984375,N1,0.042979166666666575,18.08456595010598,-42.64,54.97,97.61,-0.315,122.75558277658762,750.0,815.7307942708334,1.2712051197966527,0.6831419638027907,0.4388557861549357,64.55272319724195,0.44615335957452845,69.2098258919931,0.016666666666666666,10,0.16419355833333332,0.001169686480756232,-3.684143794526867e-07,34.56266666666667,0.016719914938647624,8.9583357634377e-06,61.61133333333334,0.9226365602024567,2.5700000000000003,0.0014438892805689232
S094,8746.0,8775.984375,N2,0.19023958333333338,62.84026607817581,-350.07,699.64,1049.71,-1.88,191.15223886842483,859.375,988.4440104166666,1.1231157059220962,0.4515405728048022,0.38763438529968763,64.05482038829811,0.31751906431404514,65.31462317123173,0.21770833333333334,105,0.16521861666666665,0.0010768195313308362,6.997276203688224e-07,34.57066666666667,0.015040685563572395,-1.2986114633821447e-05,62.84400000000001,0.20388885861337935,0.7000000000000028,-0.0001366667037398815
S094,8776.0,8805.984375,N2,-0.28511458333333334,16.028522051441215,-42.53,46.26,88.78999999999999,0.65,167.62651279894254,937.5,1020.3857421875,0.6556247020971678,0.19598564555571124,0.43620343591035593,64.03088109715429,0.30175749991903594,65.3299318842443,0.24791666666666667,127,0.16658501666666667,0.0014555458139093006,1.8495187308807307e-06,34.578,0.01423610433604344,-6.944446328241484e-07,63.18266666666667,0.3757120646925721,1.249999999999993,0.0005508334827564782
S094,8806.0,8835.984375,N2,1.2669010416666666,137.31751417688633,-573.22,959.5,1532.72,-2.47,0.0,906.25,906.25,24.346277593071367,10.657449172914871,16.719440373856134,64.24029498916981,7.179769010057229,134.02984742213206,0.08333333333333333,34,0.14092941666666667,0.04535314780467896,-5.2522107129477845e-05,34.668666666666674,0.1261410145652688,0.00013048614650774335,64.55733333333333,1.532540229669536,5.799999999999997,0.001885069955802398
S094,8836.0,8865.984375,N2,-1.173703125,41.819800911985645,-286.59,229.92,516.51,-2.575,39.344562694830664,890.625,883.69140625,0.5956211379144931,0.47359876470547885,0.766757241026563,62.722667501572715,0.3877045530893261,64.50581369148055,0.07395833333333333,49,0.06838283333333332,0.004410383455236315,-5.240560883398677e-06,34.67766666666666,0.017641491496533622,-4.409723418436589e-06,70.52700000000002,0.45538372097971946,2.1100000000000136,0.00013184031354175027
S094,8866.0,8895.984375,N2,0.04306249999999985,28.936539510630162,-138.5,176.95,315.45,-0.765,0.0,765.625,765.625,1.052106022857646,0.5020746887222612,1.947687987913847,62.66203263235749,0.4156818270817651,65.74952471311104,0.19479166666666667,128,0.05652118333333333,0.004640693446715576,-7.106221111713625e-06,34.71333333333333,0.01757523510195138,1.9791672035500627e-05,68.78933333333335,2.1876348466373936,6.750000000000007,-0.00360138986582841
S094,8896.0,8925.984375,N2,0.07205729166666665,15.844951676547781,-64.2,62.22,126.42,-0.08499999999999999,84.86374792846925,906.25,901.9368489583334,0.7851810820423671,0.3197747009614738,1.3927500149584155,62.766372633204384,0.4197814547255413,64.15605972938177,0.05,46,0.05662799166666666,0.003424235740754992,2.563681902040446e-06,34.724,0.012806248474864593,1.7361115820607527e-06,61.68866666666666,0.49443390750320637,2.0700000000000003,-0.0005788196014593099
S094,8926.0,8955.984375,N2,-0.06278645833333335,10.927674243454854,-25.09,28.58,53.67,-0.65,62.385772059471805,937.5,960.7828776041666,0.5020401087894605,0.07198059875565237,0.46876273130858953,62.78322786248095,0.39744915959662497,63.34824385884742,0.11458333333333333,87,0.055763408333333334,0.0011573978680343917,-5.43047239324881e-07,34.73133333333333,0.012578641509408763,-1.0277780565803896e-05,62.17933333333334,0.5471680627457057,1.5399999999999991,-0.0005604862631527406
S094,8956.0,8985.984375,N2,-0.0241093750000001,40.63365892513603,-267.17,295.06,562.23,0.015,137.0959491200224,937.5,830.2571614583334,2.9393077696849907,1.920170879530575,3.040075033053826,62.73756140105653,0.7551585586224568,69.83552104767315,0.059375,34,0.05074526666666667,0.016573184247318185,-1.0572802347222861e-05,34.73533333333333,0.014544949486181988,4.583334576642409e-06,60.557,0.5775993421048887,1.6600000000000037,-0.0008687849578952256
S094,8986.0,9015.984375,N2,-0.1133906249999999,59.35113491537669,-376.7,290.35,667.05,-1.29,0.0,937.5,937.5,2.2304452622084976,0.8615729468294215,2.9006038344052896,62.69431418391525,0.88037057075669,71.47726911403373,0.03854166666666667,22,0.017135724999999997,0.0124248495040936,-1.534988372121411e-05,34.711,0.0164012194668557,-8.576391215383353e-06,61.11866666666666,1.6028531505481787,4.059999999999995,0.0026408340497054168
S094,9016.0,9045.984375,N2,-0.018619791666666607,13.116115382629173,-26.18,34.68,60.86,-1.26,57.13657947100032,937.5,938.8916015625,0.49763328756112046,0.3197747009614738,0.3407444362470696,62.578087342578364,0.40397138260661775,63.72597586541927,0.128125,109,0.011124916666666667,0.0012705254659872909,-6.267909686390432e-07,34.67766666666667,0.012297244497132176,-5.451390367673909e-06,61.751333333333335,0.45348085834893703,1.5,-0.0007985418832850157
S094,9046.0,9075.984375,N2,0.0613333333333333,13.831512710011953,-28.87,44.39,73.26,-1.29,57.18073422143537,906.25,954.0364583333334,0.5647293784046774,0.1920286436967152,0.734279692397023,62.60225408018656,0.36439549910023933,64.32728814430156,0.15208333333333332,116,0.012064558333333334,0.0013598157031734935,4.973354213692011e-07,34.66633333333333,0.014715826703096754,3.125000847706164e-07,59.86133333333334,1.0744664825960004,3.030000000000001,-0.0003412500925700124
S094,9076.0,9105.984375,N2,0.062046875000000015,12.733116661873716,-25.82,29.95,55.769999999999996,-1.185,28.17457092704608,1031.25,1034.9772135416667,0.2406588179698942,0.03225804701500421,0.4724977494802371,62.69619727712951,0.2569312241136077,64.25729530566937,0.053125,44,0.01250231666666667,0.0017267380035939316,1.4805329537036007e-06,34.65666666666665,0.007888106377465285,-7.5000020345046865e-06,60.769666666666666,0.9335362279466656,2.8399999999999963,-0.0013467711986684023
S094,9106.0,9135.984375,N2,0.013416666666666617,14.061693180311616,-41.48,31.36,72.84,-0.95,116.28446160473909,906.25,944.7998046875,0.2683358404385983,0.032258047015004204,0.37167361493878825,62.766415083514524,0.23947003422556534,63.88270501473775,0.06875,53,0.014989699999999998,0.001199406440703067,-4.208842287554873e-07,34.65766666666666,0.0076084748070087615,3.298612005916229e-06,57.705666666666666,1.6727575702679955,4.800000000000004,-0.0024637159461035007
S094,9136.0,9165.984375,N2,-0.061609375000000015,14.53855343573294,-72.16,41.03,113.19,0.28,125.57659572558103,750.0,824.5279947916666,0.27059083695067476,0.10679496678474859,0.3529390488770294,62.77530032167168,0.2354135168747457,63.88270501473775,0.07291666666666667,61,0.010932625,0.0032069349672818434,-5.0685979461257454e-06,34.646999999999984,0.011874342087035557,-5.937501610649212e-06,55.775666666666666,1.5702668209221287,4.579999999999998,0.002733716019345707
S094,9166.0,9195.984375,N2,0.1458749999999999,24.68948638770239,-113.48,251.66,365.14,-1.71,0.0,1062.5,1062.5,2.805291495239646,2.258908867314778,1.8609540447300739,62.73264001627365,1.635301171636265,95.4725091322104,0.014583333333333334,5,0.008135416666666668,0.004127181232559202,-9.94862683068219e-07,34.63466666666667,0.013349989596332951,-8.263891130611777e-06,60.346666666666664,1.4340207653850605,4.93,0.0023668756420561093
S094,9196.0,9225.984375,N2,-0.20822395833333335,11.669400447049224,-26.47,30.96,57.43,-1.005,54.93744182330434,984.375,987.841796875,0.23825719937822562,0.09107288747664329,0.2137600509332836,62.61563055925077,0.2053890635392544,64.82283548256741,0.05,43,0.007953900000000002,0.0012905968735434003,6.947814384715269e-07,34.626000000000005,0.0130639452948437,-2.777778531295903e-07,62.775333333333336,0.611210456571402,1.9200000000000017,-0.0010082641623980462
S094,9226.0,9255.984375,N2,0.07429166666666669,19.555480615480423,-110.76,200.31,311.07,-0.45999999999999996,26.553956696151893,937.5,938.427734375,0.2418731158410679,0.05581428468591172,0.1838504780083231,62.63388943907045,0.20427204319983364,63.702433234531945,0.07291666666666667,62,0.010526925000000001,0.0009951922022277905,-3.4257062244211743e-07,34.62533333333334,0.013349989596334193,-5.486112599314072e-06,58.222,2.349826092855952,7.550000000000004,-0.004203959473730326
S094,9256.0,9285.984375,N2,0.10464583333333329,14.05638321707968,-48.68,38.6,87.28,-0.18,27.3560886700476,921.875,934.8388671875,0.34201582768768013,0.2676982001973283,0.5409249729758174,62.68580585092868,0.3131743172879641,64.32728814430156,0.11145833333333334,84,0.007398775,0.001455523625495306,-1.263486670867695e-06,34.61000000000001,0.015491933384829338,-4.58333457664231e-06,54.992333333333335,0.3700421897868162,1.2199999999999989,0.0005678820984923223
S094,9286.0,9315.984375,N2,-0.10399999999999995,12.80227770017898,-24.56,27.75,52.31,-0.86,63.16146449959336,953.125,966.8863932291666,0.3041309910584948,0.47729594061814057,0.4699106002445808,62.5920648767876,0.36095631316130256,63.702433234531945,0.075,62,0.0072173,0.001352990450816265,1.3160277007453618e-06,34.60066666666668,0.01436043948569111,-1.0694447345497911e-05,55.989,1.201255870606536,3.3999999999999986,0.0019339241357216085
S094,9316.0,9345.984375,N2,0.052437500000000005,12.473808501727147,-30.19,30.89,61.08,-0.2,34.95833744205152,968.75,946.2646484375,0.3628530369018411,0.5073665242510148,0.6403632595384176,62.64703618424825,0.3790105488732237,63.702433234531945,0.10520833333333333,79,0.0071852666666666655,0.001273491085777814,5.562527550598837e-07,34.58133333333334,0.013349989596334419,-8.819446836872438e-06,56.51866666666667,1.2274899411219442,3.6400000000000006,-0.0021668061433393394
S094,9346.0,9375.984375,N2,-0.06673437500000005,12.803968436430559,-30.88,27.91,58.79,-0.15,52.36126747355343,1000.0,958.2600911458334,0.3027489075812936,0.3657184709581948,0.41228950858454894,62.619173877435934,0.31374815926946725,63.702433234531945,0.171875,128,0.00655545,0.0012285065313216693,-9.040393077363574e-07,34.56333333333334,0.016599866130652813,-1.000000271267549e-05,56.588,0.9363062177158354,2.9499999999999957,-7.125001932780574e-05
S094,9376.0,9405.984375,N2,0.13358333333333344,12.375613716824533,-30.04,30.81,60.849999999999994,-0.68,141.81855978491785,1000.0,1097.9817708333333,0.42816935090633884,0.5125751553972896,0.5343648472069954,62.66240397452384,0.4110492268704841,64.82283548256741,0.0875,62,0.005786833333333333,0.0011924000400685818,-3.4531085756045407e-07,34.554,0.013063945294843919,-1.1666669831453057e-05,55.10000000000001,0.17239489551608014,0.6600000000000037,0.00023145839612044228
S094,9406.0,9435.984375,N2,-0.14653124999999995,15.083599041711059,-67.02,54.3,121.32,-0.185,195.0642132520717,1046.875,978.9876302083334,0.5336546883415237,0.29860606423383673,0.6317654661080065,62.600698699140075,0.39715326111541327,64.47480127925948,0.12916666666666668,100,0.005359841666666667,0.001157457968969308,2.924581956538075e-07,34.543666666666674,0.01378001773906184,-6.0763905372146244e-06,55.201,0.8718690650933016,2.6300000000000026,0.0009717710969431144
S094,9436.0,9465.984375,N2,0.14136458333333332,12.10221680418147,-25.67,29.33,55.0,-0.95,186.93933089154078,937.5,848.0143229166666,0.39059583224436306,0.0,0.05589199343873463,62.59754759194972,0.30302993294014763,63.56886030125127,0.18333333333333332,127,0.006438025000000001,0.0012536195692374142,1.0978017300894452e-06,34.50999999999999,0.017320508075688607,-1.1875003221300473e-05,57.539333333333325,0.8347491971977107,2.200000000000003,0.0014304170546921265
S094,9466.0,9495.984375,N2,-0.20066666666666666,12.709785902231223,-31.58,29.05,60.629999999999995,-0.78,140.46030077843082,968.75,1074.31640625,0.6819822771809315,0.4011688110142108,0.8424913451583147,62.61873692379935,0.3666211505217469,64.26507605223851,0.13958333333333334,95,0.006811650000000001,0.0010842353192457809,-1.984883350934069e-07,34.49300000000001,0.012688577540449835,-1.024305833416319e-05,57.808666666666674,1.0363292055241051,2.950000000000003,-0.001498542073172221
S094,9496.0,9525.984375,N2,0.1764999999999999,17.392123895123714,-63.96,118.3,182.26,-0.76,280.2221207376098,1265.625,1008.3984375,0.7440008913898484,0.5318980932445821,0.44594892387843404,62.68283318507073,0.42319092530795194,65.94694837519019,0.15833333333333333,111,0.007099875,0.0010956835808640193,1.5261918202560276e-07,34.47366666666667,0.015162087220725493,-1.2743059012332488e-05,59.61233333333333,1.2238618749225294,3.9499999999999957,0.001804757434016232
S094,9526.0,9555.984375,N2,-0.06211979166666668,11.247202204707028,-24.89,29.89,54.78,-0.41000000000000003,0.0,703.125,703.125,0.2759905613070048,0.3487079325484613,0.4868942105039063,62.69300605093949,0.31707091246477415,63.7102817447859,0.06041666666666667,50,0.007121224999999999,0.001081867932963631,1.609590280379307e-07,34.460666666666675,0.012364824660659628,-1.5277781922137336e-06,57.812000000000005,0.8358165667976037,3.0,-0.0006549307332168856
S094,9556.0,9585.984375,N2,0.12431770833333335,11.697248895444522,-32.41,33.02,65.43,0.295,174.0172842117404,1078.125,1043.0419921875,0.3157882553582736,0.45351515770025685,0.5338376521835911,62.72990021735731,0.32951032416116394,64.08587988004847,0.08854166666666667,66,0.007142575,0.0011654342943190749,3.5889137339718244e-07,34.43866666666666,0.015216949614019173,-1.2986114633820906e-05,53.75833333333333,1.9948752397636857,6.0,-0.0033839939735226705
S094,9586.0,9615.984375,N2,-0.060619791666666686,10.12621484899178,-23.62,25.87,49.49,-0.55,61.931405778829834,921.875,967.2200520833334,0.20378099201921,0.47729594061814057,0.39279397828250884,62.73386078585796,0.32468328248468986,63.7102817447859,0.034375,30,0.007227974999999999,0.0010432593993705496,2.752149184068243e-08,34.419999999999995,0.014375905768565981,-6.180557232139158e-06,55.427,1.34240368990355,4.0,0.0022836464528120802
S094,9616.0,9645.984375,N2,0.03215104166666668,9.897247902831529,-22.64,22.55,45.19,0.19,0.0,906.25,906.25,0.16950704672339995,0.4841229182759271,0.21824097521750788,62.633572083698866,0.2872682302254304,63.7102817447859,0.3645833333333333,214,0.00676895,0.0012395876925413547,-4.94274873663974e-07,34.40999999999998,0.014605934866804442,-1.3472225876797293e-05,56.57033333333334,0.25768822678233083,1.1999999999999957,-9.142363591135982e-05
S094,9646.0,9675.984375,N2,-0.05219270833333329,18.210766210494278,-58.92,110.8,169.72,-1.355,56.465911919640135,906.25,924.3815104166666,0.5706574774742045,0.4307502639935994,0.63080292198823,62.74362199064442,0.37691665098196997,65.05382386916237,0.11979166666666667,81,0.007153258333333332,0.001244021841286246,5.387729326098449e-07,34.39199999999999,0.009451631252504438,-6.180557232138368e-06,53.623666666666665,0.9127010585192842,3.2900000000000063,-0.0011684378169590426
S094,9676.0,9705.984375,N2,-0.11482812500000002,10.185837148116937,-22.43,24.59,47.019999999999996,-0.675,208.8602041384993,546.875,749.9348958333334,0.20102817312229868,0.03225804701500421,0.19982631347136331,62.76668818376438,0.16501346033528527,63.52952069707436,0.040625,36,0.006929074999999999,0.001026077979188229,1.7374679192350037e-07,34.37933333333333,0.015902480589168565,-1.4305559436187052e-05,52.99366666666666,0.45398592733940796,1.5700000000000003,1.871528285462322e-05
S094,9706.0,9735.984375,N2,0.1601875000000001,30.87102996179984,-137.95,269.32,407.27,-1.775,88.28811393768095,593.75,604.443359375,1.3167177600846058,0.5983157785261335,1.9959591883596275,62.733977044275754,0.37249054791146585,63.953107821277925,0.2947916666666667,159,0.02740655,0.01848720376406791,3.070405086372908e-05,34.37233333333334,0.01476105988365572,1.4201392741263776e-05,55.477333333333334,0.7820099459441394,2.3500000000000014,0.0011006252985637207
S094,9736.0,9765.984375,N2,0.0009687499999999405,12.418765962037323,-38.12,32.67,70.78999999999999,-0.98,0.0,890.625,890.625,0.48246599621113195,0.0,0.23683890079662917,62.6794392502143,0.3810340475087578,63.48228099241551,0.36875,193,0.051887525000000004,0.001637191634896477,2.0077056227500046e-06,34.39866666666665,0.012310790208411632,1.7361115820619127e-06,55.59966666666666,0.1537635269568903,0.5900000000000034,-3.9826399692492e-05
S094,9766.0,9795.984375,N2,-0.058166666666666596,17.77073433266679,-89.87,60.27,150.14000000000001,-0.575,16.884694944721254,671.875,670.8089192708334,0.8547025757861945,0.4952859373354166,0.8605553762283724,62.752233741634114,0.5370385789828256,67.21606950722423,0.075,51,0.049229075,0.005309875585740373,4.755669475821798e-06,34.389333333333326,0.0194821855949356,-2.180556147069203e-05,55.665,0.9009245251407021,2.9200000000000017,0.0014484378929139243
S094,9796.0,9825.984375,N2,-0.01479166666666664,10.268180490310696,-25.35,27.25,52.6,-0.515,223.91765003180072,1062.5,989.9332682291666,0.22008274564480418,0.04559597630883185,0.34655421854146995,62.852914512299876,0.2033362802286902,63.686733312362634,0.13125,101,0.05491985,0.0011089647999373098,3.798434190113443e-07,34.362,0.018867962264111613,-1.9236116329240955e-05,58.33466666666666,0.3352982088960341,0.9299999999999997,0.0004689584605464561
S094,9826.0,9855.984375,N2,0.052807291666666666,10.696821450803201,-23.11,29.9,53.01,-0.245,0.0,1187.5,1187.5,0.23040385738958447,0.0,0.4955356249106168,62.93863851555482,0.24296462359842688,63.15853069855251,0.0,0,0.057354091666666655,0.0012122833070686173,3.2750334404930097e-07,34.353,0.017349351572895345,-1.5104170763933267e-05,57.79633333333333,1.1638226764512798,3.6999999999999957,-0.0018319102191596715
S094,9856.0,9885.984375,N2,-0.06022395833333337,14.734104376335853,-52.74,79.44,132.18,-0.495,110.97013205505517,968.75,1046.0123697916667,3.9207597185792116,1.7868925614153939,6.5362607041836664,63.01053028815086,2.0205068190985798,96.94328238717729,0.013541666666666667,4,0.07240786666666667,0.015959801160485117,2.53641435992143e-05,34.30733333333334,0.01965253729731161,-2.6805562827029887e-05,55.964000000000006,1.0928391159422022,3.780000000000001,0.0018374310539906293
S094,9886.0,9915.984375,N2,0.040390625000000006,11.544262035364675,-26.48,93.17,119.65,-0.315,137.9425546603133,687.5,798.9095052083334,0.18483053424390922,0.22219509383022434,0.5283612226471793,63.28852183616786,0.19759923980055463,63.41135544995076,0.0,0,0.09148684166666668,0.0015023835229163536,2.0228123976813125e-06,34.276666666666664,0.011925695879997696,-1.666667118778578e-06,59.89533333333334,0.7331336091660846,2.230000000000004,-0.0003247223103087874
S094,9916.0,9945.984375,N2,-0.1259895833333334,10.816487807966665,-25.44,28.91,54.35,-0.985,149.90041393980385,953.125,830.37109375,0.15925921720229852,0.41962362227953753,0.20497289793748072,63.26987956411726,0.24032604678576056,63.41135544995076,0.0,0,0.09543682499999999,0.0013125909851796947,1.512570071769225e-06,34.25933333333333,0.01339983416149553,-1.2500003390844492e-05,59.25333333333333,1.1722153764939656,3.8100000000000023,-0.0017845838174326762
S094,9946.0,9975.984375,N2,-0.01228645833333335,11.707038264580767,-31.66,26.55,58.21,-0.22,293.6421496216737,781.25,869.6940104166666,0.40490562815097214,0.38085561340735,0.5055250296034367,63.20149779101812,0.3382705602500496,63.72597586541927,0.15208333333333332,87,0.09680344166666668,0.0026505366840064463,-2.79255501100127e-07,34.23866666666667,0.014313940369057214,-1.1041669661911996e-05,53.410666666666664,1.420922079339876,4.730000000000004,-0.001822153272068487
S094,9976.0,10005.984375,N2,0.1726197916666667,40.389200104282516,-141.35,280.01,421.36,-0.845,27.552045643040934,984.375,980.56640625,4.156301691407879,4.17581859489849,7.1241763656502,62.9018543410179,1.4607545292417274,76.47875521999558,0.041666666666666664,18,0.03236039166666667,0.01676127298282951,6.5168262035661436e-06,34.18033333333333,0.0386853403184653,-6.274307257570177e-05,54.54200000000001,0.8550532147182419,2.190000000000005,0.0014243753863865522
S094,10006.0,10035.984375,N2,-0.11227083333333335,10.976913132873436,-26.44,26.13,52.57,-0.79,101.62925156816591,906.25,944.0104166666666,0.3497751633986546,0.05581428468591173,0.15291936305524628,62.92242020175456,0.268627909623625,63.03967004989794,0.0,0,0.047296841666666666,0.002330907645088187,3.5362654992039658e-06,34.11466666666667,0.015216949614017677,-2.1875005933975096e-05,55.673,0.5711634325363156,1.5799999999999983,0.0007675349304293976
S094,10036.0,10065.984375,N2,0.027494791666666647,22.283934030133633,-104.17,167.2,271.37,-0.635,199.09815843008187,1406.25,1306.8196614583333,1.357577435380964,0.6018490028422596,2.1123972690339814,62.79158935280988,0.5240609520142084,65.3834841531101,0.04895833333333333,33,0.05467421666666667,0.007354439257101038,9.821970980352367e-06,34.08000000000001,0.0169312334656022,-2.284722841993266e-05,52.580000000000005,1.2677986170261166,3.8100000000000023,-0.00212757002158475
S094,10066.0,10095.984375,N2,-0.009968749999999993,16.505096851650304,-122.59,81.45,204.04000000000002,-0.895,192.30166028009657,1000.0,1071.3216145833333,0.3426291701882502,0.2599996661322642,0.5266333306301032,62.83982173441977,0.2671848043511293,63.66317616958802,0.125,83,0.07337953333333333,0.003198448931209557,5.349540947683633e-06,34.059333333333335,0.013399834161495578,-9.58333593298034e-06,54.105333333333334,1.279975867828071,3.940000000000005,0.0022614589467933343
S094,10096.0,10125.984375,N2,-0.21710416666666668,15.897217689268226,-102.98,100.29,203.27,-0.37,0.0,890.625,890.625,2.054845856276221,1.0728337346589274,3.2584718640627988,62.90741030551349,1.642349532563083,100.66777041337511,0.01875,7,0.07667842500000001,0.007471605728425562,-5.303417454269058e-06,34.02833333333333,0.019163043135739417,-1.9895838730424572e-05,56.336,0.41826307510943417,1.1300000000000026,-0.00045229178935866693
S094,10126.0,10155.984375,N2,0.2467239583333334,32.54372936346008,-215.81,253.06,468.87,-0.39,0.0,890.625,890.625,0.5795974117628737,0.4130625373018258,0.6052710810845189,62.542954747686814,0.3689215302281519,63.63961030678928,0.2916666666666667,154,0.07728704166666667,0.0027286868404534604,3.0921334342809887e-06,33.99100000000001,0.01556705923844719,-1.857639392805781e-05,56.266,0.35095678746345155,1.1999999999999957,0.0005827779358664102
S094,10156.0,10185.984375,N2,0.02471875000000001,10.918104589971882,-27.07,25.69,52.760000000000005,-0.03,91.95244450993924,796.875,829.3701171875,0.4287201864431962,0.03225804701500421,0.4480753110527292,62.50450647151833,0.35089754239053966,63.3798075099633,0.24270833333333333,147,0.08104494166666666,0.0012208778419361022,1.04057732220522e-06,33.972666666666676,0.013399834161494614,-1.2361114464277797e-05,57.273999999999994,0.5937597718494123,1.6699999999999946,0.0009210419165152765
S094,10186.0,10215.984375,N2,-0.16463541666666662,35.71841202337032,-444.38,167.68,612.06,0.275,23.717291042002092,796.875,793.8232421875,1.3146543166255615,0.7278254033134137,2.173670570716731,62.636974494480704,0.5496676369468229,67.01492371106603,0.096875,65,0.09179612499999999,0.011080172510361698,1.6041537988698456e-05,33.96366666666667,0.02373230334843631,1.142361420996506e-05,56.739,1.5582476268766352,5.030000000000001,-0.0012105211617082139
S094,10216.0,10245.984375,N2,0.04997395833333324,12.98025272005153,-34.34,36.39,70.73,0.23,239.52984295679434,796.875,1024.9593098958333,0.3640755392276291,0.22838645595544604,0.12489144591960208,62.61098002187191,0.27304889810669836,63.2771680782255,0.13020833333333334,98,0.10482143333333334,0.0014885803680763166,2.0576173116366387e-06,33.93333333333333,0.0283235277149985,-4.576390130314391e-05,62.53633333333334,0.8581355111843085,3.479999999999997,0.0005748959892838511
S094,10246.0,10275.984375,N2,0.07285937500000002,12.009843402089997,-27.02,27.07,54.09,-0.11,121.79447894090933,1171.875,1122.2493489583333,0.4679843283671177,0.3992166265707824,0.19598564555571124,62.671645686567814,0.37532466475298815,63.2771680782255,0.221875,137,0.10817409166666667,0.001093677374699939,8.101006971844325e-07,33.85900000000001,0.02270829510699972,-3.336806460721965e-05,59.96833333333334,1.8494793561672669,6.899999999999999,-0.002239688107554283
S094,10276.0,10305.984375,N2,0.08365104166666694,57.5395901229201,-462.13,269.23,731.36,0.365,109.47074937629553,1218.75,1173.9908854166667,0.7793386340976701,0.7463561656753877,0.8838441919001084,62.61368713459372,0.4949074774266975,66.21933252457322,0.090625,60,0.08705582499999999,0.014045221311690857,-1.4603073188767686e-05,33.803000000000004,0.021931712199461686,-2.2256950482029544e-05,52.771,1.5640297311752103,4.960000000000001,0.0018254518840744042
S094,10306.0,10335.984375,N2,0.00226041666666675,12.001713805349489,-35.59,28.71,64.30000000000001,0.08499999999999999,47.99231487140454,843.75,863.8346354166666,0.2582808246366733,0.47761978573151903,0.3894760881798636,62.62967971838229,0.31670444611083326,63.198101237299845,0.09583333333333334,78,0.08312683333333333,0.001171875564592456,1.0065983633350597e-06,33.80733333333333,0.0161107279647924,1.236111446427807e-05,58.830666666666666,1.1128819444227773,4.270000000000003,0.0019215282990256881
S094,10336.0,10365.984375,N2,-0.0010364583333337082,83.3147671554409,-760.53,514.27,1274.8,0.615,240.56485347775416,1421.875,1239.0299479166667,1.2505792928512502,0.6516130825689429,2.0403458206167735,62.555200871600405,0.5627038123117142,65.95452979136459,0.11458333333333333,77,0.0914546,0.0105975527335324,1.3732823603739042e-05,33.814,0.02026491220475966,1.1944447684582176e-05,57.56000000000001,1.7972478960900193,5.270000000000003,-0.0032204175402608345
S094,10366.0,10395.984375,W,-0.16215625000000003,14.462232039312578,-46.65,42.93,89.58,-0.21,172.9384226689956,937.5,1068.2861328125,0.4148593616281976,0.24578919095210203,0.42029668753816696,62.417346891804144,0.2754063449807175,63.48228099241551,0.17083333333333334,122,0.10122367499999999,0.0011154736524790704,5.023367248092243e-07,33.84233333333334,0.01382831234179322,2.1875005933985584e-06,55.416666666666664,0.2807292091836704,0.8500000000000014,0.00028444452160495906
S094,10396.0,10425.984375,N2,0.5399427083333332,34.64122649788786,-410.2,218.22,628.42,0.17,107.28509845813491,1031.25,1045.4508463541667,1.771026643860529,1.4427741410983985,4.870227253246391,62.621308992185625,0.7533216036623295,69.6921803361037,0.06145833333333333,29,0.08181383333333334,0.028721555803476632,-4.324778603726835e-05,33.85733333333334,0.01631631766735818,4.652779039923352e-06,57.958999999999996,1.8642466753803444,5.130000000000003,0.003287743947413181
S094,10426.0,10455.984375,N2,-0.46329166666666666,17.58336979750366,-104.36,43.82,148.18,-1.105,21.01260932925691,1015.625,1017.431640625,0.5239811128249017,0.5031918520112935,0.4586930406661469,62.61112949858276,0.3544426305685192,63.88270501473775,0.15208333333333332,89,0.02437434166666667,0.002633281395571671,-3.959595041122785e-06,33.84033333333334,0.010796089827134097,-5.208334746179076e-07,58.33766666666667,0.7975240156606918,2.509999999999998,-0.0014208684409907876
S094,10456.0,10485.984375,N2,0.1103854166666667,10.839462358735972,-24.49,26.72,51.209999999999994,-0.4,39.139247522334706,1031.25,1032.421875,0.20202963204001095,0.4871793817476268,0.07210109366946754,62.6011891784566,0.28951990677615225,63.686733312362634,0.415625,199,0.0216946,0.0011662651242320512,-8.067411042591978e-07,33.857333333333344,0.016918103387263576,9.513891469696462e-06,56.044666666666664,1.1248458659844123,3.1000000000000014,-0.001970417201176541
S094,10486.0,10515.984375,N2,-0.349578125,46.530222933360974,-268.9,558.63,827.53,-0.58,55.71700524944159,1031.25,1012.7034505208334,2.5295165103318986,1.130294255566517,2.8781080346948413,62.72721278349969,1.0482651128820502,71.72168430816443,0.022916666666666665,9,0.04206535,0.02670480743787842,3.764789996959092e-05,33.85733333333334,0.03434465832637596,-1.2430558927560613e-05,54.223,0.6712830997425753,2.190000000000005,0.00019288199676703463
S094,10516.0,10545.984375,N2,0.23093229166666665,15.345008258510287,-41.99,61.56,103.55000000000001,-1.59,0.0,1015.625,1015.625,0.1767275838370708,0.3432746081451732,0.37167361493878825,62.76339776992726,0.2575209516801893,63.52952069707436,0.14895833333333333,111,0.07650760833333334,0.0026161928614427273,4.353570408412111e-06,33.69633333333333,0.04520201568760287,-7.767363218143357e-05,55.10933333333333,0.38094560708263275,1.5399999999999991,-0.0006210418351350469
S094,10546.0,10575.984375,N2,0.7968541666666665,62.979058810412525,-572.18,435.0,1007.18,-1.1749999999999998,74.75621506927294,1015.625,969.5719401041666,8.226935285554903,5.310798338579197,3.560132619837825,62.81496277537012,0.9015227093819965,70.03570517957252,0.065625,24,0.089575475,0.018697116441206696,1.9931736526621237e-05,33.601333333333336,0.06108645967442882,-3.3750009155276235e-05,51.833,0.8461132705889136,3.0900000000000034,-0.0014548267835359128
S094,10576.0,10605.984375,N2,-0.8785000000000004,46.71681730829559,-293.36,270.62,563.98,-1.91,34.906769931813855,843.75,856.3395182291666,8.826088813851808,8.464652811676462,3.11541429132583,62.98680662869445,1.1595181698097667,79.07591289387686,0.05625,35,0.049752375,0.01995604802687751,3.875781650331391e-06,33.51833333333333,0.1471299501196888,0.0002570486808400279,51.97033333333333,1.0250251487429747,3.3800000000000026,0.0016498268364330629
S094,10606.0,10635.984375,N2,0.15456249999999994,11.711198923477495,-26.03,27.19,53.22,0.045,0.0,953.125,953.125,0.9527777145084203,0.33205483984827966,1.6648789240053532,62.915161407258125,0.3523233817438648,65.27633568147036,0.016666666666666666,10,0.06164585833333334,0.002708720270705441,1.993174802836047e-06,33.756,0.031048349392520658,4.7291679495357033e-05,54.055,0.257212622811038,1.1000000000000014,-8.684030133471724e-05
S094,10636.0,10665.984375,N2,-0.03685416666666666,20.091823344636143,-76.62,86.06,162.68,-0.84,149.99845269959278,859.375,911.3362630208334,1.882484771500305,0.4198821242490431,3.8831343833157366,62.77622020173792,0.5794484586613579,65.26867548832288,0.10729166666666666,37,0.05466350833333333,0.004472838155645386,6.930664857493722e-06,33.82633333333333,0.013780017739062109,1.4548615057675987e-05,53.112,0.5688315509299157,2.1799999999999997,-0.0005947223835509929
S094,10666.0,10695.984375,N2,0.07753645833333334,19.00175470580842,-82.65,174.16,256.81,-1.13,147.62615993904325,1125.0,1067.48046875,1.0082337889913673,0.4733787665255194,1.1419208772636376,62.810562295725255,0.5009714843678593,67.38694235532579,0.019791666666666666,11,0.05875266666666666,0.012398750784073188,-3.969337014251577e-06,33.84333333333334,0.013984117975601045,-4.097223333664615e-06,53.68499999999999,0.9479864626318946,3.009999999999998,0.0015858684857499139
S094,10696.0,10725.984375,N2,-0.012057291666666685,20.02531051535284,-96.64,149.28,245.92000000000002,-0.795,32.004773949452535,1187.5,1183.3333333333333,0.5550861732399953,0.14409680388158816,0.5070295780874677,62.656714184459965,0.3828632569978893,64.95382975621992,0.171875,114,0.07174601666666666,0.0014976039250712743,-5.582597000487456e-07,33.84333333333334,0.013984117975601045,5.555557062598073e-06,54.89199999999999,0.18732147056152856,0.6300000000000026,0.00014902781820416158
S094,10726.0,10755.984375,N2,-0.17554687499999996,12.606171988392342,-30.44,28.19,58.63,-0.615,58.565707242507514,890.625,907.5276692708334,0.3121091305537215,0.11557806855349137,0.07216126567549165,62.55999405490996,0.2420788775620319,63.25345840347388,0.10729166666666666,77,0.07286687499999998,0.001187518782746191,1.2523668761845888e-06,33.85333333333334,0.01577621275492987,-2.0833338984734084e-06,54.98833333333333,0.5637675841061535,1.6199999999999974,-0.0008680905132624008
S094,10756.0,10785.984375,N2,0.11556249999999993,13.143154848478874,-31.01,29.4,60.41,-0.11,14.484762670108717,945.3125,943.359375,0.35501736068661327,0.11557806855349136,0.11599041357658253,62.59299134860086,0.2752587279440125,63.25345840347388,0.153125,110,0.07331522499999998,0.001064881413292109,-7.058289675100266e-07,33.84700000000001,0.014177446878755856,1.3541670340076415e-06,54.775666666666666,0.49304958055847664,1.5900000000000034,0.00032795147785142194
S094,10786.0,10815.984375,N2,-0.13027604166666673,13.013885251948563,-32.32,28.13,60.45,-0.57,61.80952722549219,1015.625,1031.2906901041667,0.2738295800107959,0.09636964965693294,0.2494438257849294,62.56438831606753,0.23367991564600535,63.63961030678928,0.13645833333333332,106,0.07198085,0.0009352664740596635,5.609936417625978e-07,33.839333333333336,0.012092238098144335,4.861112429771802e-06,54.102666666666664,0.45934687933581864,1.7299999999999969,-0.00036937510019940874
S094,10816.0,10845.984375,N2,0.2250572916666667,13.061459460025297,-26.55,30.79,57.34,-0.03,151.71481472140724,984.375,1012.060546875,0.25834803385592514,0.1899835519196333,0.5039675484895387,62.66995645147676,0.253097550373306,63.63961030678928,0.053125,41,0.07257865,0.001092611151096306,1.0402567926043798e-06,33.833,0.011000000000000267,-9.895836017752187e-06,53.26433333333333,0.41451725604075323,1.4600000000000009,0.0003753126018100586
S094,10846.0,10875.984375,N2,-0.046901041666666705,13.915145755113043,-35.01,30.51,65.52,-1.2149999999999999,38.07654544846759,890.625,883.5367838541666,0.29637384600740707,0.2397553730135967,0.5175899009404604,62.683116351813254,0.28293007093693595,63.63961030678928,0.07395833333333333,51,0.0746071,0.0017326706236327775,2.517960752485012e-06,33.827666666666666,0.010546194679704092,-5.243056977825754e-06,56.196000000000005,1.171618823110429,4.810000000000002,0.0019866672055846362
S094,10876.0,10905.984375,N2,0.010817708333333302,12.089274874350533,-29.03,25.92,54.95,-0.75,146.52848637767602,859.375,781.0384114583334,0.10663227798529547,0.1356408400888169,0.20219874281810513,62.83963286669596,0.13431745554136723,63.63961030678928,0.0010416666666666667,1,0.0775648,0.001004675748687109,5.841438216535982e-07,33.82533333333333,0.013597385369580817,-3.3333342375584386e-06,58.471999999999994,1.0564008077745242,2.950000000000003,-0.001836389387041392
S094,10906.0,10935.984375,N2,-0.016890625000000034,12.181970462211924,-30.29,29.44,59.730000000000004,-0.71,90.48777710877349,734.375,762.1012369791666,0.13981246740425785,0.23239907830544898,0.11625205344661897,62.83438021557777,0.15823376443428908,63.2771680782255,0.011458333333333333,9,0.07863236666666666,0.0010725822807080541,6.207792482582601e-07,33.81666666666667,0.013743685418724982,-7.222224181374653e-06,55.892,0.999674613728554,3.5600000000000023,-0.0017362504709880838
S094,10936.0,10965.984375,N2,-0.12439583333333334,23.91078397200343,-222.06,101.14,323.2,-1.79,103.13150276206689,984.375,924.3001302083334,0.9190877119308158,0.5263829338566701,1.3135705785874452,62.674702219439126,0.4465535107520268,68.53466276272175,0.08645833333333333,60,0.08186707499999998,0.002358865794410879,1.6907862659467938e-06,33.812,0.013012814197294838,-3.5416676274057062e-06,52.72633333333333,0.21767687571770736,0.8999999999999986,-0.00014892365150923686
S094,10966.0,10995.984375,W,0.08894791666666667,18.122725947498093,-115.97,71.09,187.06,0.45999999999999996,235.59731723054588,890.625,1033.3984375,0.5101306596653014,0.4990224819584785,0.49194907143818134,62.67557881982545,0.33220666235506846,63.82789358893179,0.10416666666666667,82,0.08341513333333332,0.00192047648572489,1.4268033384340642e-06,33.794000000000004,0.016653327995728596,-1.319444802366758e-05,60.431000000000004,5.0715746075553305,14.700000000000003,0.009015592723413825
S094,10996.0,11025.984375,N2,-0.16632812499999997,17.801224966822293,-78.15,94.57,172.72,-0.355,140.9827835478155,1234.375,1150.8463541666667,1.2194157725685233,0.5296749527356902,1.9741490673023034,62.63967589427501,0.4508830522966868,67.94115100585212,0.11458333333333333,81,0.07556801666666665,0.007555891011856613,-7.646490355493258e-06,33.76733333333333,0.015260697523013112,-9.72222485954529e-07,70.10433333333332,2.070598437382026,6.819999999999993,0.0037222579541715357
S094,11026.0,11055.984375,W,0.19201562500000008,10.834369234916533,-24.72,23.88,48.599999999999994,-0.76,0.0,1234.375,1234.375,0.4559490540954719,0.3318963165365888,0.08507936450096985,62.59054926023567,0.3553425136556213,63.25345840347388,0.057291666666666664,50,0.075034075,0.003356222331139829,9.298572400871424e-07,33.78,0.013416407864997659,7.638890961059048e-07,64.82866666666666,5.186877502141556,15.760000000000005,-0.009247224730692472
S094,11056.0,11085.984375,W,-0.052635416666666636,48.188232580168496,-389.02,412.37,801.39,-0.77,0.0,1234.375,1234.375,0.5399170460975153,0.30125425020053886,0.7855465188856313,62.52189202927669,0.39197203914208933,65.52098900352466,0.06666666666666667,43,0.08110898333333333,0.0011433470381831679,4.617505592856333e-07,33.754,0.017435595774163357,-1.916667186595979e-05,55.55999999999999,2.182452748629394,6.82,-0.0038132649233031998
S094,11086.0,11115.984375,N2,0.03191666666666653,43.70360992399699,-201.32,481.8,683.12,0.19,0.0,1234.375,1234.375,1.2093368677594438,0.558565522305426,1.3762478554832418,62.65599318494454,0.6195237484149881,69.1158447825099,0.030208333333333334,19,0.08685309999999999,0.010294638714236972,1.1012232587953718e-05,33.718666666666664,0.03667272677193385,-5.368057011734238e-05,53.55,1.578522515941199,5.420000000000002,0.00281701465305302
S094,11116.0,11145.984375,N2,0.04203645833333327,14.281718517797058,-30.09,35.89,65.98,-0.965,161.87121994435986,1234.375,1194.9951171875,0.3560473960919935,0.4724977494802371,0.4030913530316532,62.78454830264603,0.35129915937135087,63.14269553954757,0.41354166666666664,195,0.09991045000000001,0.0023622698930266194,3.728949362236696e-06,33.66199999999999,0.015362291495737306,-1.2986114633819795e-05,56.467,0.44440334532194187,1.3299999999999983,-0.0001265625343322844
S094,11146.0,11175.984375,W,-0.05506250000000002,12.40574826425612,-31.84,28.83,60.67,-1.3,55.048968065479585,984.375,976.4811197916666,0.2986060642338368,0.48765577995367004,0.31340840191176894,62.72680819299305,0.3205343238945036,63.14269553954757,0.28125,180,0.10459715,0.0012355779932889694,1.1253488295759623e-06,33.63699999999999,0.01417744687875636,-1.774306036866615e-05,55.211,1.1577027540205072,3.6400000000000006,-0.0020555908353924787
S094,11176.0,11205.984375,N2,-0.02697395833333321,59.21803371122957,-206.37,540.43,746.8,1.4300000000000002,26.455051038304262,921.875,934.9039713541666,1.965667781286779,0.7947247678267126,1.948788519236588,62.65128061395391,1.4377195246648693,86.70063436907483,0.015625,8,0.12126327499999999,0.006353638963830753,8.735700503390981e-06,33.55533333333334,0.058179797944724505,-9.069446904689464e-05,54.72566666666667,2.0714498679802884,6.289999999999999,0.0036209384822424254
S094,11206.0,11235.984375,N2,-0.23616145833333324,61.54520050510449,-651.06,294.43,945.49,-0.015,45.95911222589274,1000.0,994.287109375,9.780911646614998,8.284655680730728,4.2845896341812395,62.75999332863746,1.1193878041361776,74.87322618933953,0.08125,33,0.11790027499999998,0.070157056858162,-4.213729853984879e-05,33.45733333333333,0.04202644669993233,-2.368056197932057e-05,61.38099999999999,1.4192564954933267,4.549999999999997,0.0024660076133918214
S094,11236.0,11265.984375,N2,-0.11244791666666695,104.35493652897325,-422.74,523.64,946.38,-3.9450000000000003,15.46630805849474,1031.25,1029.7037760416667,17.072406947851718,10.05854736032992,17.67153419088796,64.307151979165,6.172738802879498,114.25410277097274,0.078125,37,0.08568941666666666,0.038238837137693604,5.480836426008143e-05,33.660999999999994,0.13988924190229965,0.00019961810970543328,66.658,1.509535027748612,5.220000000000006,0.0025534729148960823
S094,11266.0,11295.984375,N2,0.7755572916666662,64.00990844198986,-421.79,175.46,597.25,2.295,50.813530989027015,984.375,960.7747395833334,0.42731700924359295,0.4627814458971606,0.14359895446075582,63.78509022324579,0.26570386848802496,64.47480127925948,0.2947916666666667,126,0.121252675,0.00334816576939897,2.0204499838460228e-06,33.76,0.013416407865000306,8.125002204048461e-06,65.74966666666667,0.9845658377624565,2.9299999999999926,-0.0017077435188106334
S094,11296.0,11325.984375,N2,0.032109375000000016,71.70457657028213,-406.33,215.55,621.88,4.55,27.12289415067457,968.75,953.8899739583334,4.503239092740789,0.5930148958219066,1.0320593414988308,63.62669440267799,0.4245205784891676,66.88796603276258,0.0625,42,0.13481174166666665,0.02458468023332682,-3.1569598407551706e-06,33.788000000000004,0.01739731780093261,1.2152781074431468e-05,62.49333333333334,1.689515380877671,4.699999999999996,-0.002891042450912123
S094,11326.0,11355.984375,N2,-0.2923281250000001,37.605330983544306,-265.91,172.27,438.18000000000006,1.92,25.131724942682816,968.75,970.8251953125,0.5232070906650848,0.4330127018922193,0.3342289400620479,63.17587123191888,0.335289558449455,64.41273166075166,0.171875,122,0.07690274999999999,0.0016413514972424402,1.8371684671138413e-06,33.80466666666667,0.01359738536958112,-8.333335593894624e-07,63.13833333333333,1.1057940837043552,3.2099999999999937,0.001936354691936494
S094,11356.0,11385.984375,N2,0.2499218749999997,37.22244491656631,-105.02,137.14,242.15999999999997,2.3,55.47900515513846,937.5,934.5540364583334,4.721706671203632,0.4457359706772111,1.238977442961197,63.28624408606273,0.5176641246585925,66.04543890383347,0.19375,117,0.07034739166666665,0.008572159104037358,-1.217442105425918e-05,33.785999999999994,0.013063945294842757,-9.30555807984843e-06,63.68266666666667,0.26510291502651523,0.9999999999999929,-0.00013520837001095107
S094,11386.0,11415.984375,N2,-0.5076718749999998,43.175307633128114,-341.81,189.56,531.37,1.1949999999999998,18.33979146090271,953.125,953.7272135416666,0.6928171906947909,0.24843040258904617,0.15723301886761007,63.504771248214965,0.18047265321080522,64.93843238021688,0.071875,48,0.06830806666666668,0.005633295459044278,1.7450903171360455e-06,33.763999999999996,0.021385353243128426,-2.229167271367185e-05,61.70466666666667,1.225867674569958,3.1400000000000006,-0.002072917228981453
S094,11416.0,11445.984375,W,-0.1484583333333333,104.18105336343518,-901.08,435.33,1336.41,-1.5750000000000002,32.577910286622476,828.125,839.3473307291666,3.6890174608408794,0.5200786198579338,1.1807759189758797,63.2470432601932,0.4342835209647609,66.52818951391959,0.04895833333333333,32,0.0074629,0.002998457337810006,-1.9953946385076597e-06,33.73666666666667,0.011925695880000215,-5.555557062604882e-07,61.772333333333336,0.7437144762758235,2.1999999999999957,0.0012707989558373906
S094,11446.0,11475.984375,N2,-0.0026927083333329565,69.7294405115329,-170.67,304.09,474.76,-4.505,179.3469237501168,937.5,989.2985026041666,3.312727815803348,0.43827312641015687,0.7785954902900478,63.167172732052876,0.48622426821028913,66.46803743153546,0.1,55,0.012438191666666666,0.012837681572423057,1.616500286594044e-05,33.735666666666674,0.0149851778619933,8.368057825536408e-06,61.85233333333334,0.9915398238206182,2.740000000000002,0.0013565628679912303
S094,11476.0,11505.984375,N2,0.47712499999999985,68.76275129449476,-420.45,378.77,799.22,1.2349999999999999,115.48239789462696,953.125,1011.1572265625,1.9930042579538616,0.5015211236827418,0.7408703590297624,63.65077243900031,0.6123734578936484,71.56116265125938,0.06354166666666666,49,0.04837515833333333,0.003257900604673285,5.387884057043201e-06,33.73066666666667,0.015902480589168773,-1.8402782769852013e-05,61.208000000000006,1.2776316631434375,3.8699999999999974,-0.0022743756169638714
S094,11506.0,11535.984375,W,-0.4146302083333333,33.49038271262743,-65.06,58.72,123.78,1.595,41.91641345999896,968.75,977.7180989583334,0.41053297844252284,0.25654623798103576,0.49874408239318707,63.462500202131906,0.4409097727892048,64.31174076325411,0.18541666666666667,118,0.05389470833333334,0.003119689168266163,1.3590782766596883e-06,33.699999999999996,0.019148542155126663,-1.9236116329241572e-05,60.38866666666666,0.6894864433442882,2.1700000000000017,-0.00021687505883112552
S094,11536.0,11565.984375,N2,0.26564583333333425,122.64465302670652,-539.67,515.37,1055.04,-2.71,23.49387699873266,984.375,988.7451171875,4.1643606900216055,1.8808935155044442,1.668792589448198,63.67355016042378,0.8476988270189671,72.3671196055225,0.03958333333333333,18,0.08224082499999999,0.0038375101946932985,6.419636507062854e-06,33.65433333333333,0.010225241100117799,-9.270835848207799e-06,60.32399999999999,0.40785291466409745,1.759999999999998,0.0003602084310461236
S094,11566.0,11595.984375,N2,-0.2802916666666668,72.57021802564694,-254.27,322.03,576.3,-9.425,47.92258184659546,937.5,959.9934895833334,0.7339840862640613,0.39369488150371246,0.43538053079716627,63.70317317666944,0.31704714149462254,65.95452979136459,0.04479166666666667,23,0.08944751666666667,0.0021438253970544226,3.4589358341297267e-06,33.640333333333324,0.01139688066485024,-6.6319462434736804e-06,64.287,0.950312755535425,3.5999999999999943,0.0016279518304990852
S094,11596.0,11625.984375,W,0.2410520833333333,89.26943651301633,-299.21,389.24,688.45,-3.585,11.31155329256135,937.5,935.7991536458334,0.4031075039269577,0.07902948640996107,0.5009712788396379,63.50914347898974,0.3994094370789585,64.69930447848725,0.44166666666666665,210,0.09397435,0.001739599257731507,2.1983834088496706e-06,33.647,0.010049875621118892,8.715280141947089e-06,65.93166666666666,0.15233916837839906,0.6000000000000085,0.0001494792072154952
S094,11626.0,11655.984375,W,-1.1205572916666664,88.61096571032566,-379.79,629.04,1008.8299999999999,-1.225,25.474365904984577,1000.0,993.3430989583334,0.8610186302265602,0.23490680406753275,0.3869605900655632,63.39362081084667,0.3193203573059621,65.79513659838392,0.146875,86,0.09436932499999999,0.0015111441921190076,4.028145623954443e-07,33.646333333333324,0.009480975102216708,-5.381945904389637e-06,63.67100000000001,0.5484301839493024,2.1699999999999946,-0.0006107293323375996
S094,11656.0,11685.984375,W,1.7674270833333334,74.79774701963578,-169.84,205.46,375.3,-19.09,83.6484826928464,1015.625,1035.8968098958333,0.34638510200193207,0.032258047015004204,0.297201939858332,63.33341832903134,0.24151830831678697,64.19501538281614,0.09895833333333333,87,0.09668593333333335,0.0012370557433770792,8.6084354949098e-07,33.63533333333333,0.012578641509407735,-7.361113107938905e-06,65.886,1.8337168083794535,5.149999999999999,0.0032324314324086983
S094,11686.0,11715.984375,N1,0.04856249999999941,94.53529659447008,-297.14,462.5,759.64,-13.08,0.0,968.75,968.75,0.577101195571934,0.7809332691295291,0.6812523891395414,63.475953341734076,0.283603052404469,64.83054835492293,0.146875,77,0.098469125,0.0019025688185647842,2.6669132668493016e-06,33.63,0.01154700538379227,-5.138890282901492e-06,68.50866666666667,0.23837971576644004,0.6899999999999977,-0.0004020834424054473
S094,11716.0,11745.984375,W,-0.6460729166666679,114.816729498375,-543.06,733.64,1276.6999999999998,-6.06,72.89264828335097,921.875,954.2643229166666,2.6991026592055656,1.5450848929391836,1.718781249715914,63.67865705841281,1.1093775598889941,82.15838362577492,0.01875,8,0.10205631666666666,0.0017462701346170795,2.1597518879535276e-06,33.61466666666667,0.016069294390925352,-6.458335085269389e-06,65.99233333333333,1.8573200825083682,5.259999999999998,-0.0032963550608602074
S094,11746.0,11775.984375,N2,-0.1299635416666666,30.998212167006567,-152.34,277.44,429.78,-1.3050000000000002,86.9355646364863,953.125,1021.2076822916666,3.540888241660637,0.5369172794114151,1.35275527409699,63.53541230361472,0.3795941820115838,65.52098900352466,0.23125,111,0.06192365,0.01631777284877341,-1.7142220795958336e-05,33.58133333333333,0.020450482200238262,-2.756945192313767e-05,63.68733333333333,0.4051907644006165,1.1700000000000017,0.0006047223862636684
S094,11776.0,11805.984375,N2,0.01991145833333337,11.789931091758355,-35.07,32.25,67.32,-0.925,109.8658118439261,875.0,965.1529947916666,0.506158899553512,0.12801909579781012,0.2870750936166354,63.3158317380049,0.2525562471701632,64.31174076325411,0.10833333333333334,86,0.05295509166666667,0.001196534788433064,-8.530347366088158e-07,33.544999999999995,0.017654083569153253,-2.447917330706644e-05,62.82666666666667,0.45709468992272917,1.4500000000000028,-0.0006965974111863641
S094,11806.0,11835.984375,N2,-0.3205677083333328,129.54315228766677,-634.51,906.67,1541.1799999999998,-1.725,107.90409736635493,812.5,901.9205729166666,14.388027912894188,7.33523619961666,21.540537098648773,63.85460129135758,6.938517054944433,150.7083275734954,0.06041666666666667,27,0.060033733333333346,0.012002945017601121,1.413289662893246e-05,33.51066666666666,0.02988124644135316,-4.020834424054484e-05,61.42266666666667,0.46073082042434393,1.8799999999999955,0.00014722226215881665
S094,11836.0,11865.984375,N2,0.37109895833333323,16.801504071145157,-59.93,60.05,119.97999999999999,-0.3,0.0,812.5,812.5,0.7819996403451859,0.7280281289876253,0.6336861681638808,63.01634683151412,0.41260191911217187,65.07687761409578,0.1,64,0.07646480833333333,0.002430860726491179,3.529479039029688e-06,33.46533333333334,0.013349989596333142,5.486112599314393e-06,64.30366666666666,0.6602599656364316,2.539999999999992,0.0010948961303429174
S094,11866.0,11895.984375,N2,-0.1137239583333335,21.360788412436566,-95.93,138.82,234.75,-0.925,14.277530778528755,812.5,813.96484375,0.5293429824372432,0.6300413001784531,0.5817500835601335,62.91726212785017,0.3657202966626959,64.72248450113763,0.22604166666666667,130,0.08158939999999999,0.001506604921669912,1.952201918457552e-06,33.466666666666676,0.010434983894998,-4.236112260229115e-06,66.66433333333333,0.7381358652413201,2.1399999999999864,0.0012437850596205091
S094,11896.0,11925.984375,N2,0.058468749999999875,22.342738232315515,-143.27,121.99,265.26,-1.43,35.405938075577915,859.375,868.6767578125,1.582373269785153,0.6628070239833512,1.435197431250024,62.83338826344159,0.7601442860405623,71.18286310622803,0.026041666666666668,9,0.083425825,0.0015356312201746213,-1.0860308935630681e-06,33.466666666666676,0.012736648783027982,6.8750018649635265e-06,65.891,0.6010122017618822,1.8499999999999943,0.0002923959126508004
S094,11926.0,11955.984375,N2,0.05330208333333329,13.601020432474138,-32.18,44.76,76.94,-1.95,69.52337394235441,859.375,831.2906901041666,0.08507936450096985,0.4675911601554884,0.46275213660290704,62.85040135781086,0.2813049864847866,63.56099432828282,0.40625,119,0.08417325833333335,0.0016173950171795455,1.514375627814569e-06,33.47433333333334,0.015423647068345672,3.784723248893801e-06,65.89399999999999,1.30444777588066,3.760000000000005,-0.002094306123672451
S094,11956.0,11985.984375,N2,-0.0755364583333334,16.686873334791606,-81.34,144.9,226.24,-2.22,0.0,718.75,718.75,0.4732137007708275,0.22838645595544604,0.5006766255112508,62.64933603096601,0.3450046556754068,63.85138996137829,0.13333333333333333,99,0.08514499999999998,0.0011566240097801888,8.000483941103493e-07,33.47966666666667,0.013780017739063375,9.479169238056102e-06,63.745666666666665,0.3829332694986023,1.2000000000000028,0.0002402431207256728
S094,11986.0,12015.984375,N2,0.06402604166666673,15.049796226103478,-41.96,42.41,84.37,-0.745,137.3562138070884,718.75,804.1829427083334,0.34655421854146995,0.24762544169571912,0.33306629928922893,62.61073317411301,0.2836660008280593,63.85138996137829,0.18541666666666667,113,0.08597775833333333,0.0011902404868753317,1.2068082700760299e-06,33.49433333333334,0.006674994798166464,1.5625004238553765e-06,63.03766666666666,0.8094264773419645,2.769999999999996,0.0009430210891441746
S094,12016.0,12045.984375,N2,0.01946354166666669,12.658128497371262,-30.55,52.72,83.27,-0.72,0.0,1031.25,1031.25,0.28563518095154566,0.139283726964862,0.19080137559922242,62.57136624282884,0.2625227084437578,64.87680633323437,0.08541666666666667,56,0.088934975,0.0014848618367966097,1.8918336295121603e-06,33.494,0.012806248474865814,8.541668983742575e-06,63.71666666666667,1.364334595650528,4.43,-0.0023286117427874743
S094,12046.0,12075.984375,N2,-0.12683333333333327,11.332631216302866,-27.49,33.08,60.56999999999999,-1.5,144.24562015859104,687.5,765.91796875,0.32547874727938164,0.10663227798529547,0.24916527312876754,62.61274276577879,0.2554930131139985,63.85138996137829,0.128125,84,0.08824105833333334,0.006134486391562368,-5.448656642973264e-06,33.498000000000005,0.00979795897113231,5.972223842290731e-06,59.677,0.5508003267972886,1.6499999999999986,-0.0008871877406650764
S094,12076.0,12105.984375,N2,0.1606510416666666,34.58880876699709,-233.41,300.31,533.72,-0.505,197.4160780376581,1093.75,938.4440104166666,0.374013459260938,0.40517485937144054,0.8641967006995571,62.68619262373041,0.32692405932619617,64.19501538281614,0.19375,107,0.06658905,0.00164116544387416,1.5244465940881598e-06,33.495000000000005,0.01204159457879226,-5.798612684085798e-06,66.14866666666667,4.839751187360314,13.949999999999996,0.008668474573696445
S094,12106.0,12135.984375,N2,-0.06284375000000009,11.35986862345919,-26.89,37.19,64.08,-1.42,188.87040211009506,765.625,904.5491536458334,0.0,0.08507936450096985,0.2732186624299299,62.75405750218206,0.10275543534347076,63.40346993658943,0.007291666666666667,6,0.06929046666666668,0.0011765508625734035,5.773109204944986e-07,33.48433333333334,0.01145522685162737,-1.128472528340071e-05,72.77099999999999,1.5759745133302983,4.8700000000000045,-0.002578229866056281
S094,12136.0,12165.984375,N2,-0.039765624999999985,14.066807777133317,-52.21,41.72,93.93,-1.26,0.0,765.625,765.625,0.18055422008053118,0.1821904480893551,0.32301577780092,62.74050676914555,0.1569830695766135,63.40346993658943,0.022916666666666665,18,0.0697817,0.001096342400894904,-5.538399939887145e-07,33.476000000000006,0.011430952132988916,5.277779209467817e-06,61.81833333333332,4.466795333967692,13.319999999999993,-0.007994273001918671
S094,12166.0,12195.984375,N2,-0.028614583333333332,14.69481059044158,-49.11,40.02,89.13,-1.4,62.440156897299474,765.625,825.390625,0.07210109366946754,0.10152910775842672,0.3687853090439839,62.72813661009175,0.1393524033934621,63.48228099241551,0.011458333333333333,9,0.070166025,0.001201075882022033,9.347973455938987e-07,33.479333333333344,0.012092238098145615,-5.555557062596988e-06,57.65266666666666,1.6462420505165352,4.659999999999997,0.002839514659156536
S094,12196.0,12225.984375,N2,-0.0426927083333333,16.385413371138117,-57.3,113.12,170.42000000000002,-1.64,0.0,890.625,890.625,0.04564354645876384,0.03225804701500421,0.03225804701500421,62.7771232060696,0.03939504989596477,63.48228099241551,0.0020833333333333333,2,0.07191679999999998,0.0010709105518202703,-4.681433561586796e-07,33.468,0.011944315244778647,-2.8472229945816065e-06,62.059,0.4947143957207364,1.9199999999999946,0.00013857642648015028
S094,12226.0,12255.984375,N2,0.09211458333333351,37.0783312465453,-198.48,304.2,502.67999999999995,-1.395,0.0,890.625,890.625,0.36822437821026094,0.5265261795089902,0.8462533593811543,62.844933030964945,0.3240637800341408,63.76519426771944,0.15416666666666667,96,0.023232091666666666,0.021692528506375888,-2.460431591913951e-05,33.470000000000006,0.01154700538379227,-6.666668475116114e-06,61.89733333333333,0.25010575540936497,0.8500000000000014,-0.0002986806365778645
S094,12256.0,12285.984375,N2,0.01584895833333331,11.332871993127034,-25.11,38.85,63.96,-2.115,85.70101789188749,890.625,861.1653645833334,0.11110243021644486,0.17714153455327436,0.19011772211945127,62.79409351145926,0.13596595447055923,63.40346993658943,0.05520833333333333,44,0.014701474999999997,0.0012805996249316176,2.849447387545405e-07,33.462,0.012220201853214227,-9.830102363787834e-20,64.014,0.9313703166123919,3.210000000000001,0.000613819610953671
S094,12286.0,12315.984375,N2,-0.03750520833333318,46.828323263399376,-288.64,325.31,613.95,-0.795,0.0,593.75,593.75,4.835112818975604,5.4407780668046195,5.390900254647228,62.97821479654485,0.8959879316110854,71.5122367151245,0.084375,29,0.018662391666666667,0.01585823637488095,-6.340556624499953e-06,33.456,0.017243356208502512,-7.986113277483421e-06,62.504,0.3079242331050503,0.9500000000000028,0.0002761111860110627
S094,12316.0,12345.984375,N2,0.08717708333333336,20.88038378553281,-196.61,197.84,394.45000000000005,-1.4049999999999998,0.0,593.75,593.75,2.0358921314336214,0.4705278784248601,0.6349135644912621,62.79755921458878,1.0276867341501812,75.43871685016919,0.011458333333333333,4,0.0071746,0.0011142982051497705,2.9467455910225613e-08,33.45933333333333,0.013399834161493434,8.194446667330093e-06,66.18666666666667,5.292629046345702,16.250000000000007,0.009116599695258161
S094,12346.0,12375.984375,N2,-0.17399479166666676,22.460303522037634,-140.01,75.69,215.7,-0.85,0.0,593.75,593.75,0.6833206299632211,0.35743589168781953,0.9857045694648519,62.80641783794626,0.36901223824101154,65.4446330878247,0.07708333333333334,52,0.013089391666666665,0.009014191352432224,1.013771173440531e-05,33.458666666666666,0.013349989596332774,-9.236113616567192e-06,84.97333333333333,3.9417917527721094,12.670000000000002,0.00700076578796815
S094,12376.0,12405.984375,N2,0.20151562499999998,32.4364756075363,-143.74,237.61,381.35,-1.1749999999999998,0.0,593.75,593.75,0.48812282152024916,0.3862757879740845,0.40488418911736007,62.67560304751287,0.22367975007729102,63.96092557178953,0.10729166666666666,66,0.037260741666666666,0.0018680815582473606,1.1141619775830012e-06,33.45333333333333,0.01556349003990485,1.1458336441606457e-05,83.796,5.044586933866174,14.209999999999994,-0.008974516323382248
S094,12406.0,12435.984375,N2,-0.12490104166666675,27.299089434421443,-195.02,253.17,448.19,-0.93,0.0,593.75,593.75,0.8417485263409864,0.3567248297591109,1.305355887509439,62.84278725896429,0.430268743022139,65.13063795173512,0.10416666666666667,72,0.037260941666666665,0.011973563408119734,-3.969683585526147e-06,33.45466666666667,0.013349989596332951,-7.638890961068668e-07,68.81366666666668,3.7713883237991936,11.620000000000005,-0.006714411543622924
S094,12436.0,12465.984375,N2,0.0494166666666664,58.47834380201263,-392.96,324.29,717.25,-2.22,0.0,593.75,593.75,4.151843946937579,3.832542802317702,5.8737406303867,62.912721333258574,1.6579714846015294,78.63841300535,0.030208333333333334,13,0.00783645,0.0015441526794653434,1.406098037678504e-06,33.464666666666666,0.011469767022722266,-5.972223842291718e-06,68.04533333333333,1.6447892131077317,4.799999999999997,0.002577153476875398
S094,12466.0,12495.984375,N2,-0.009182291666666575,35.452169907556716,-347.71,266.35,614.06,1.145,0.0,593.75,593.75,0.36475442414116865,0.3738857868349935,0.42950911701292466,62.84097081015201,0.3305489942874786,64.69930447848725,0.06041666666666667,45,0.015171275000000001,0.006801512612356289,1.1057643841591753e-05,33.45966666666667,0.014255603186894217,-8.159724435689118e-06,68.81466666666667,0.26621712107893436,1.1000000000000085,-0.00011937503238255291
S094,12496.0,12525.984375,N2,0.02097916666666658,18.701038768485542,-83.34,77.17,160.51,-2.625,0.0,593.75,593.75,0.39361218928731817,0.37727176461405115,0.09668440031302303,62.56807067665773,0.3431935325170587,63.671029518926424,0.346875,162,0.022964941666666665,0.0010865334501357464,1.4488263478804095e-07,33.443999999999996,0.012806248474866737,-4.791667966490244e-06,64.17500000000001,1.735992991537313,5.3700000000000045,-0.002552674303568334
S094,12526.0,12555.984375,N2,0.06125520833333343,15.315809704812716,-37.58,41.73,79.31,-1.7149999999999999,0.0,593.75,593.75,0.4618050334165803,0.21578094200034337,0.07198059875565235,62.582046407352934,0.3535073802931789,63.671029518926424,0.3541666666666667,178,0.025580991666666667,0.0012148976259739835,6.80726530145e-07,33.42666666666666,0.012736648783030524,-4.6527790399255966e-06,60.794333333333334,1.1706570329899741,3.1300000000000026,-0.001798785210173939
S094,12556.0,12585.984375,N2,-0.3446875,15.606055876053707,-39.89,49.33,89.22,-2.1550000000000002,31.746276370120253,750.0,748.1770833333334,0.48902894142939585,0.1462753717308556,0.04564354645876384,62.62878505768501,0.3663884982143405,63.671029518926424,0.3958333333333333,174,0.02742805,0.001163543358667824,7.887367590974281e-07,33.41266666666665,0.012364824660661133,-4.166667796947753e-06,61.93999999999999,0.6879341053715342,2.0900000000000034,0.0010327780579367555
S094,12586.0,12615.984375,N2,0.27197395833333327,17.685532370219217,-91.8,53.72,145.51999999999998,-1.22,27.531027918196653,531.25,532.5927734375,0.49646209258613094,0.08507936450096985,0.10663227798529547,62.74387226123541,0.37253903478556266,63.671029518926424,0.009375,9,0.029178775,0.0011747836287482908,9.082092307425221e-07,33.405999999999985,0.013063945294842757,-4.861112429772715e-06,65.06533333333334,1.72810634960802,4.750000000000007,0.00307263972239576
S094,12616.0,12645.984375,N2,0.07580208333333334,16.374403461856627,-41.32,63.11,104.43,-1.53,0.0,531.25,531.25,0.4324096224614136,0.03225804701500421,0.16532992583014122,62.88644580077608,0.32296988412498984,63.35613624582863,0.01875,16,0.030929541666666668,0.0012187178569835419,7.732022496750898e-07,33.402666666666654,0.01209223809814347,-7.986113277481544e-06,67.18033333333332,0.3287905446058672,0.960000000000008,-0.00047420151752428335
S094,12646.0,12675.984375,N2,-0.1777291666666668,25.23814951181675,-148.3,141.69,289.99,-2.05,160.35361103458695,953.125,843.4895833333334,0.536044541059789,0.26442539577460317,0.5465316382399305,62.827980376716226,0.41216717841241385,64.5832795698701,0.14270833333333333,106,0.032509725,0.002431265781311249,2.1845897853162384e-06,33.38133333333333,0.014996295838935922,-1.10416696619118e-05,63.559,2.1922626819491007,5.82,-0.00388774411017364
S094,12676.0,12705.984375,N2,0.12434375000000011,16.18086849964084,-60.22,52.82,113.03999999999999,-1.2650000000000001,70.02926706622493,750.0,778.9225260416666,0.4604956097480433,0.10703853634971329,0.39478891819623757,62.78776546132954,0.34406884932047094,63.671029518926424,0.221875,143,0.04026091666666665,0.0013506609097236639,1.2499677869921292e-06,33.35100000000001,0.016401219466854633,-3.92361217545877e-06,60.93833333333334,0.7650145241903731,2.6999999999999957,0.001152743368257208
S094,12706.0,12735.984375,N2,-1.439395833333333,58.017607897028256,-270.51,324.41,594.9200000000001,-2.71,0.0,750.0,750.0,5.120748575376672,5.881465764580335,7.352895015173729,63.16481099822495,1.6122530483314619,89.78864070694021,0.06666666666666667,31,0.034581175000000006,0.014224802756489864,-1.5311047339151296e-05,33.31666666666667,0.055277079839256726,-6.875001864963506e-05,65.71366666666667,0.934624642421877,3.3499999999999943,0.001285729515443118
S094,12736.0,12765.984375,N2,1.358578125,40.501165610916125,-190.63,354.83,545.46,-1.83,0.0,750.0,750.0,0.6533035707506546,0.5824360658761897,0.44546202411715813,62.90665081936022,0.4135106098049857,65.49809157525127,0.15416666666666667,105,0.019025533333333334,0.00210298475954746,2.5308657039023713e-06,33.223333333333336,0.016397831834997604,1.4513892826033405e-05,63.162666666666674,1.9415782812501337,6.649999999999999,-0.0032525703267606136
S094,12766.0,12795.984375,N2,0.0991562500000001,13.908346475549106,-36.19,43.07,79.25999999999999,-1.21,281.8356497600024,1484.375,1338.0940755208333,0.37080407187923675,0.30412207150254644,0.12401959270615269,62.87712841288096,0.2993980907540402,63.56099432828282,0.06458333333333334,59,0.020349475000000002,0.0013556483501907866,9.586220048345286e-07,33.234,0.010832051206181924,-7.777779887636423e-06,58.470666666666666,1.858084916131541,5.799999999999997,0.002819375764804624
S094,12796.0,12825.984375,N2,-0.07231249999999999,34.57414343157823,-214.91,304.02,518.93,-1.505,213.7303393445471,1296.875,1154.0608723958333,0.6182938835124352,0.34133622231850325,0.821340130137935,62.85521328730315,0.4309341878968296,66.69332800213226,0.06875,49,0.026958199999999998,0.009994466973114008,1.4194864093658881e-05,33.239333333333335,0.015260697523014271,1.8472227233136457e-05,63.59666666666667,0.8956313725833619,3.1700000000000017,0.0015249309692195563
S094,12826.0,12855.984375,N2,0.012359375000000068,20.912218348522146,-62.26,56.17,118.43,-0.545,28.059744779175784,937.5,929.7526041666666,0.4706627640891086,0.1496378730654628,0.18808935155044437,62.88674171775118,0.3497133943506287,63.671029518926424,0.30625,115,0.046432016666666666,0.004000481287677216,6.379518657638525e-06,33.22266666666667,0.01651934892448427,-1.9652783108934725e-05,64.95266666666666,1.2662620406359646,3.799999999999997,-0.0019920838737206696
S094,12856.0,12885.984375,N2,-0.0794375000000001,17.19784040149403,-39.77,50.18,89.95,-2.3049999999999997,0.0,937.5,937.5,0.48439068074976654,0.1428261375083551,0.2263462809256845,62.9082954852275,0.3557632311523966,63.39558344238185,0.3260416666666667,121,0.05359585,0.0020077317991953007,2.7415623756408348e-06,33.226000000000006,0.009521904571389168,-4.16666779694805e-07,61.047333333333334,0.46716116657483,1.6799999999999997,-0.0005192362519629594
S094,12886.0,12915.984375,N3,0.0782343750000002,17.49889161838977,-58.93,51.87,110.8,-1.49,0.0,937.5,937.5,0.4710349402438799,0.15021685713216965,0.14282613750835507,62.886032751992964,0.3506085879370822,63.75735251718032,0.31145833333333334,117,0.056863025,0.001261518539053232,5.404786622392204e-07,33.215333333333334,0.01995550606279378,-1.819444938000339e-05,62.11500000000001,1.05180083666063,3.010000000000005,0.0016453129463197026
S094,12916.0,12945.984375,N2,-0.14615104166666673,16.43225590391562,-39.42,45.95,85.37,-0.43,0.0,937.5,937.5,0.4782600118020415,0.1529193630552463,0.11110243021644485,62.901144252660515,0.3553308870991804,63.39558344238185,0.3333333333333333,138,0.0587632,0.0012257205880623844,9.201630100268574e-07,33.20833333333333,0.014624940645652925,2.2569450566788587e-06,64.687,0.6067682149442791,1.740000000000002,0.0010612155656509244
S094,12946.0,12975.984375,N2,0.007984374999999932,14.863273064761763,-36.81,45.97,82.78,-1.07,0.0,937.5,937.5,0.48594726901577384,0.16827350421923892,0.11987768650679834,62.91815761777365,0.3626067451915925,63.39558344238185,0.35625,139,0.059435725000000016,0.001062739008117702,-3.308138918223429e-08,33.215,0.01875277757204586,-6.631946243475111e-06,65.71333333333332,0.5701305893292243,1.75,-0.0005259723649013576
S094,12976.0,13005.984375,N2,0.2780364583333333,14.935951288220227,-35.01,42.13,77.14,-0.99,6.470397018785017,953.125,949.6907552083334,0.4951051638428839,0.16532992583014125,0.10642856726723117,62.95498514094275,0.3680637223058066,63.39558344238185,0.403125,143,0.060140308333333344,0.0012518704458784422,-4.165148699312766e-09,33.209333333333326,0.015902480589168363,-2.4305562148862098e-06,66.07466666666667,0.3103302899958188,1.2600000000000051,0.0002642361827897615
S094,13006.0,13035.984375,N2,0.16611979166666663,14.23610103224311,-36.84,45.4,82.24000000000001,-1.52,5.793813623113075,953.125,950.5533854166666,0.49607837082461076,0.21578094200034337,0.06451609403000842,62.95011299018124,0.36649173262480955,63.39558344238185,0.3958333333333333,158,0.06066345,0.0012115018768041597,6.362306413386073e-07,33.218333333333334,0.013186693629900288,-4.479167881718122e-06,64.89866666666667,0.5909976499295249,1.8199999999999932,-0.000998680826465067
S094,13036.0,13065.984375,N2,-0.32491666666666663,14.825992592309703,-41.92,49.52,91.44,-0.625,0.0,937.5,937.5,0.4999609359740019,0.254795584597841,0.07880950133074056,62.986994336883676,0.3736121947294141,63.39558344238185,0.44375,160,0.06193414166666667,0.0011520982473718225,-1.3102933241898105e-07,33.199999999999996,0.01732050807568861,-1.3194448023661958e-06,64.47533333333334,0.3709513295418811,1.1500000000000057,0.00018201393826333115
S094,13066.0,13095.984375,N2,-0.07083333333333336,14.03672389266416,-34.82,37.49,72.31,-0.32,68.10984770616224,937.5,955.4850260416666,0.49874408239318707,0.4470376549358629,0.1899835519196333,62.8940247476398,0.4389677777922742,63.671029518926424,0.36875,209,0.061144,0.0013125941109116718,-1.3115606856447181e-06,33.212333333333326,0.017829438827087544,1.0659725113857427e-05,65.331,0.6709463465881605,2.6799999999999926,-0.0005586459848757579
S094,13096.0,13125.984375,N2,0.03197916666666654,16.098160015187013,-57.55,44.07,101.62,0.39,0.0,1281.25,1281.25,0.45800058944345867,0.3667125326426986,0.4992170519228641,62.8630451248253,0.34918853672290506,63.96092557178953,0.18541666666666667,116,0.062467999999999996,0.003049797214570175,4.246520249164566e-06,33.193666666666665,0.024964419124470918,-3.4409731556460194e-05,63.336666666666666,0.42196629670573843,1.3500000000000014,0.0004807640193044753
S094,13126.0,13155.984375,N2,0.18977604166666676,12.415277290912972,-35.77,38.3,74.07,0.375,0.0,1281.25,1281.25,0.4618050334165803,0.49834687655788523,0.4359782562589052,62.7608420018656,0.4373723244514748,63.671029518926424,0.11458333333333333,96,0.06656775,0.0015194888902193395,1.6345620753477853e-06,33.193999999999996,0.022000000000000425,2.0902783448020347e-05,64.705,1.0598891451467918,3.700000000000003,0.0015961462663157174
S094,13156.0,13185.984375,N2,-0.12728645833333324,14.923046612162508,-38.94,42.43,81.37,-0.97,120.17502189297265,1281.25,1244.3033854166667,1.291629283733232,0.7770135133960026,0.5380074720025323,62.748146205316395,0.8312527471054806,76.44605941446557,0.057291666666666664,46,0.06338615833333333,0.005954245740080257,-7.248421454107381e-06,33.208,0.01886796226411227,-8.402780057177755e-06,66.43333333333334,0.8186587947504275,2.8999999999999915,-0.0014465976146369405
S094,13186.0,13215.984375,N2,0.061807291666666465,26.470033011296255,-224.4,145.13,369.53,0.565,61.66123340487368,843.75,787.0768229166666,0.5099657872511317,0.4734440891547338,0.678456140347333,62.84314306348173,0.42914050081013794,66.64833081180653,0.22395833333333334,123,0.06727253333333333,0.0037059012442619433,5.0822921772710975e-06,33.15433333333333,0.020925794820958556,-1.9548616414012583e-05,62.88533333333333,0.6544806252967985,2.480000000000004,-0.0009877086012664384
S094,13216.0,13245.984375,N2,0.06648958333333335,9.27641919004714,-22.99,25.36,48.349999999999994,-0.615,14.073939438969713,843.75,852.587890625,0.4591611841777956,0.4710349402438799,0.045595976308831845,62.63904094523874,0.4101923866166723,63.56099432828282,0.06770833333333333,62,0.07176734999999998,0.0011455622975203035,8.139689708032137e-07,33.14999999999999,0.0063245553203355,-5.555557062595754e-06,59.14533333333334,1.6197339973656841,4.469999999999999,-0.0028009035375714873
S094,13246.0,13275.984375,N2,-0.13532291666666668,10.383075301095761,-25.28,29.47,54.75,-0.12,0.0,875.0,875.0,0.49859176687947826,0.36985914877228,0.03225804701500421,62.70331210507886,0.40679772173094186,63.56099432828282,0.06666666666666667,60,0.072696075,0.0010260779791882268,2.999564615767315e-07,33.147999999999996,0.009797958971130763,6.111112768855329e-06,55.839666666666666,1.3194859689372307,4.290000000000006,-0.002233576994785427
S094,13276.0,13305.984375,N2,-0.019453125000000057,11.287267363922842,-29.53,35.15,64.68,-0.215,0.0,875.0,875.0,0.4779411411199082,0.3,0.05589199343873463,62.742883987932665,0.36980924383325225,63.85138996137829,0.04375,40,0.07300564999999999,0.0011691927460859468,-4.653634074879031e-07,33.14966666666666,0.008749603165602715,-1.8402782769848435e-06,55.934333333333335,1.5119296353409515,4.5,0.0026697576686625616
S094,13306.0,13335.984375,N2,0.07873958333333334,12.243825926040568,-30.71,27.98,58.69,-0.56,12.11400097502071,875.0,881.689453125,1.0551209243165238,0.48183023282468374,0.33535196063240785,62.754154050196966,0.5714596318335236,68.54195795277518,0.06875,57,0.07030469999999998,0.0033186180371755146,-3.259972238490733e-06,33.147999999999996,0.010770329614266865,-3.2638897742750047e-06,58.620333333333335,1.178975496871,3.9399999999999977,0.0019199657986018323
S094,13336.0,13365.984375,N2,0.008218749999999957,19.44392958649687,-135.78,122.88,258.65999999999997,0.21,0.0,890.625,890.625,2.7714784258461327,1.3258579507456878,1.2953978367882029,62.92469051220208,1.7508899480699962,96.51424765287247,0.015625,5,0.05972418333333333,0.003341594654211602,-1.2737360226063426e-06,33.172333333333334,0.015638272140987564,4.062501102023589e-06,62.98366666666666,1.0960185014658992,4.119999999999997,0.0017563546431083555
S094,13366.0,13395.984375,N2,-0.003182291666666733,10.576557761945507,-29.81,33.03,62.84,-0.8200000000000001,66.46876365901805,890.625,918.26171875,0.10642856726723121,0.04559597630883185,0.36010794822525094,62.88677021704429,0.12896382699432254,63.56099432828282,0.0010416666666666667,1,0.0559128,0.0014400431625475672,1.7241458670100551e-06,33.17366666666666,0.015380362660080669,1.0729169577141281e-05,67.70700000000001,0.6703190782505505,2.3500000000000085,3.968751076592811e-05
S094,13396.0,13425.984375,N3,-0.33906249999999993,13.706326677709594,-39.44,39.96,79.4,-0.795,107.11841112624303,1078.125,990.8528645833334,0.1406481462432643,0.19982631347136334,0.4496092053105675,62.76008304696292,0.1992091153817528,63.671029518926424,0.04895833333333333,39,0.06030060833333333,0.001891192883234606,1.8901634901702175e-06,33.17066666666666,0.012631530214332356,2.847222994581311e-06,65.49900000000001,1.0154058301979567,3.469999999999999,-0.0014203823297478124
S094,13426.0,13455.984375,N3,0.19150520833333332,17.450428235402455,-53.69,51.13,104.82,-0.44,31.28414408019853,875.0,862.4674479166666,0.23924568598804222,0.31725377318043396,0.259673940848048,62.75095006606331,0.2652341225438384,63.671029518926424,0.13958333333333334,95,0.062638875,0.0015675089981799153,9.534935312211179e-07,33.17733333333333,0.015691469727921226,-5.416668136032685e-06,61.75300000000001,0.8428370740145059,2.509999999999998,0.000751701592800996
S094,13456.0,13485.984375,N3,0.2570052083333333,15.830550538567493,-43.54,44.55,88.09,-0.795,0.0,875.0,875.0,0.17554478694117415,0.36602542176056563,0.11162856937182342,62.77161338433543,0.25118677151968305,63.39558344238185,0.18125,112,0.06386676666666666,0.0012880817050516962,1.8127392070147572e-07,33.17033333333333,0.013034143197346075,-7.291668644654953e-07,64.38799999999999,0.7699800863225834,2.5799999999999983,0.0013673614820316517
S094,13486.0,13515.984375,N3,-0.04046354166666681,15.959135721028645,-42.36,43.22,85.58,-0.30000000000000004,0.0,875.0,875.0,0.17633419974582357,0.39361218928731817,0.12047360245667467,62.78518814347951,0.27261044467569645,63.56099432828282,0.20729166666666668,121,0.06485962499999999,0.001072558639131211,4.912169301261191e-07,33.164666666666655,0.009568466729606014,-1.048611395565274e-05,65.956,0.3905773504271162,1.1499999999999915,-0.0005209029190817384
S094,13516.0,13545.984375,N3,-0.13456770833333334,15.598707796394246,-50.51,44.77,95.28,-0.665,53.76031259182846,875.0,913.134765625,0.13635890143294643,0.39763706363340934,0.0789470638395684,62.789465882907244,0.2635004223156544,64.01562309311689,0.20833333333333334,119,0.06652496666666667,0.0012613199893585921,2.7162116743195863e-07,33.16066666666666,0.011527744310527145,-4.166667796947654e-06,65.61466666666666,0.6115648416607636,1.8299999999999983,0.0009493752575345186
S094,13546.0,13575.984375,N2,-0.1280260416666667,16.26962485832331,-51.78,41.3,93.08,-0.63,64.41870132973621,828.125,876.6682942708334,0.18853591151437318,0.33538431521001233,0.11557806855349137,62.757578307820935,0.24347813944786512,64.01562309311689,0.159375,111,0.06654628333333333,0.0010881995235505117,1.565104591228462e-07,33.16099999999999,0.011357816691600665,1.979167203550675e-06,67.19966666666666,0.26736346463610533,0.769999999999996,0.00046093762503733306
S094,13576.0,13605.984375,N2,0.07077083333333348,15.915061299808094,-45.65,46.51,92.16,-0.875,31.037177074833497,828.125,833.9762369791666,0.19614337159899697,0.3094837070518504,0.11580316603568697,62.74670955807208,0.23809585243436207,64.01562309311689,0.14270833333333333,94,0.06716552500000002,0.0010803681082737506,6.020290261580473e-07,33.155666666666654,0.00803464719546247,-7.604168729429073e-06,66.51566666666666,1.0919086754649192,3.1200000000000045,-0.0019084380176969439
S094,13606.0,13635.984375,N2,0.07542187499999992,16.58422758568177,-50.81,47.31,98.12,-0.22,69.10706044822672,953.125,895.7763671875,0.20956925068657695,0.22838645595544604,0.10699797992641419,62.72396021428276,0.2057061911377764,63.671029518926424,0.10104166666666667,75,0.06810522500000002,0.0011813858067435028,3.4789223846903125e-07,33.14733333333332,0.013148721948875992,-1.5972226554966246e-06,65.54833333333333,0.4368987932640188,1.75,0.0007414238122351926
S094,13636.0,13665.984375,N3,-0.07592187499999978,16.219911396572005,-53.57,46.79,100.36,0.525,0.0,953.125,953.125,0.22267315359812312,0.1821904480893551,0.10152910775842669,62.713511082286814,0.1987110093130288,63.39558344238185,0.08541666666666667,61,0.06971760833333333,0.0011410122209090888,7.252399970811618e-07,33.14199999999999,0.013999999999998838,2.8472229945806455e-06,66.85099999999998,0.27566102372297724,0.8799999999999955,0.00018850699558023998
S094,13666.0,13695.984375,W,-0.07629166666666662,15.96406461590418,-59.92,45.54,105.46000000000001,0.475,0.0,953.125,953.125,0.23385126668580516,0.1821904480893551,0.07198059875565235,62.71566936788488,0.20418309956010453,63.39558344238185,0.08854166666666667,69,0.07083861666666665,0.0012419494030443535,5.134545663667989e-07,33.13966666666666,0.012512216252747045,-6.145835000497169e-06,65.94166666666666,0.4362268777699139,1.2999999999999972,-0.0007501738146087794
S094,13696.0,13725.984375,N2,0.1618385416666666,17.40942460592388,-52.54,49.23,101.77,0.045,71.02667470423646,750.0,793.603515625,0.2382571993782256,0.17399263633843817,0.13215215741081693,62.717872143611544,0.20608762924526694,63.39558344238185,0.09270833333333334,76,0.07044361666666665,0.001215145458942629,4.2198492349851467e-07,33.12866666666667,0.014544949486180793,-1.652778226122639e-05,64.48633333333333,0.5680756013849638,1.5700000000000074,-0.0008942016314566041
S094,13726.0,13755.984375,N2,-0.08843749999999992,16.488242346702506,-45.92,48.93,94.85,-1.12,99.20259946669667,906.25,888.0045572916666,0.23024132493610552,0.17399263633843817,0.08507936450096985,62.710100581132956,0.19778381511371623,63.39558344238185,0.08125,61,0.072034225,0.0014460980860145683,1.0561025000278046e-06,33.126,0.016653327995728596,-7.638890961070594e-06,63.53433333333332,0.6618443086473511,2.220000000000006,-0.0010035072166632
S094,13756.0,13785.984375,N2,-0.010390624999999994,17.060696409667127,-54.33,46.25,100.58,0.05,0.0,984.375,984.375,0.21529009821375644,0.17677362623014653,0.10642856726723117,62.70426988244776,0.19245391436627096,63.39558344238185,0.07604166666666666,58,0.07451094999999999,0.0014131524501977846,1.5267382613764828e-06,33.11533333333334,0.01454494948618086,4.86111242977279e-06,60.692,0.44906124303929834,1.9299999999999997,-0.0007822918788769205
S094,13786.0,13815.984375,N2,0.19863020833333325,16.45325508728959,-52.9,53.13,106.03,0.030000000000000002,0.0,984.375,984.375,0.2468464294297615,0.16532992583014122,0.09654963281764578,62.718126826670506,0.20692354547621905,63.39558344238185,0.09166666666666666,68,0.07610184999999998,0.0012533585390860818,1.2235029360630805e-07,33.124,0.01380821011813889,3.6805565539707974e-06,60.47833333333333,0.8359110133394727,2.4299999999999997,0.0014644101194688927
S094,13816.0,13845.984375,N2,0.03485937500000006,17.182374783754174,-49.05,39.97,89.02,-0.055,0.0,984.375,984.375,0.23472196540091145,0.16532992583014122,0.07905694150420949,62.71010754344877,0.20081970958093334,64.01562309311689,0.08020833333333334,62,0.077671475,0.0012494986592129671,1.5544383556961672e-07,33.12266666666667,0.013148721948877829,-2.430556214885297e-06,63.23433333333333,0.7155822027474481,2.220000000000006,0.0012691322887186131
S094,13846.0,13875.984375,N2,-0.31211458333333325,15.846772269515034,-57.31,42.88,100.19,-1.7,44.96656470828024,937.5,965.5924479166666,0.12801909579781012,0.04564354645876384,0.4766407608782064,62.76734614396118,0.16088208154527903,63.671029518926424,0.3625,146,0.07940095833333333,0.0015018065199165595,1.846758096451305e-06,33.13033333333333,0.013287420951996032,8.680557910308826e-07,63.267,0.7767717382431806,2.309999999999995,-0.001386771209519098
S094,13876.0,13905.984375,N2,0.002098958333333497,82.94332555225459,-524.56,415.25,939.81,-1.18,119.37253189420359,765.625,855.9733072916666,4.728716938968634,3.6831536296660534,7.619994870837986,62.958149874415376,1.5463363338288016,79.11384202527394,0.07083333333333333,35,0.03974849166666667,0.02345889118152427,-2.1678911913767336e-05,33.13166666666667,0.021921577396609805,1.736111582057723e-07,61.34866666666666,0.3844106600441193,1.269999999999996,-0.0006450001749674947
S094,13906.0,13935.984375,N2,0.10656770833333293,81.68980473247436,-346.32,350.48,696.8,0.07,0.0,765.625,765.625,2.0127779203372693,0.8916837031082764,2.3436379602850117,62.76445172992398,0.938557781231473,70.55494312945054,0.07708333333333334,38,0.022804949999999997,0.013589458673208191,-1.5771568514422884e-05,33.10800000000001,0.014922019523732276,3.1250008477107275e-06,62.62800000000001,1.2451302475377153,4.030000000000001,0.0021783339242442273
S094,13936.0,13965.984375,N2,0.46501562499999877,149.3058854677613,-590.53,650.74,1241.27,4.24,0.0,765.625,765.625,2.8971967339016786,0.9025330864972331,2.4557364019865133,62.808281511580645,1.3967904502954807,78.40918313565064,0.035416666666666666,16,0.0065127499999999994,0.0010664319657155818,3.2525399448079275e-07,33.12533333333333,0.013349989596333815,7.013890791527954e-06,66.28099999999999,0.5309761451013282,1.7800000000000011,-0.00017461810292374914
S094,13966.0,13995.984375,N2,-0.2948437499999999,49.42674494344892,-116.05,152.76,268.81,-3.42,45.52218856365422,875.0,850.6184895833334,0.3640755392276291,0.4691479792015403,0.49817265908908426,62.62540144871425,0.38558620399632876,63.788713735268246,0.234375,157,0.006715591666666667,0.0019073265080378585,3.3159622710401136e-07,33.12733333333333,0.012364824660661135,-6.944446328236801e-07,63.72933333333334,1.0284549360840058,2.9100000000000037,-0.001825903273085741
S094,13996.0,14025.984375,N2,0.6229479166666668,79.65125628885662,-334.25,303.95,638.2,5.17,0.0,875.0,875.0,0.49790794971449176,0.47829517668660076,0.5246681739045483,62.6970097877096,0.38939741462320887,64.69930447848725,0.28541666666666665,163,0.0072601916666666655,0.00512020836375473,-1.6225618550786277e-06,33.11933333333334,0.012364824660661723,2.9166674578635602e-06,62.80566666666667,1.0029113730645505,3.3799999999999955,0.001581285151173272
S094,14026.0,14055.984375,N2,-0.898484375,50.412398341131954,-126.93,123.93,250.86,-3.615,0.0,875.0,875.0,0.1368672308804737,0.22838645595544604,0.09654963281764578,62.562002733332335,0.15805271647422414,63.182275995725256,0.06979166666666667,56,0.006768949999999999,0.0011597983434632074,4.6703137669036905e-07,33.11333333333334,0.013743685418725672,-9.027780226729425e-07,67.19966666666666,0.4803643293260742,1.9500000000000028,0.00011795142088526057
S094,14056.0,14085.984375,N2,0.9779270833333323,152.92807447652916,-619.98,934.05,1554.03,-3.745,0.0,875.0,875.0,1.835462482875002,1.2589609362044911,1.7324113007396815,62.79473969705263,0.5242452155910587,65.22269543648132,0.17291666666666666,101,0.006790299999999999,0.0010919851922072937,-2.3685162675011576e-07,33.102000000000004,0.017587874611030237,2.777778531297877e-06,63.385000000000005,1.787526689777433,6.599999999999994,-0.003162882802431316
S094,14086.0,14115.984375,N2,-0.23159895833333302,74.77819758845989,-222.15,237.81,459.96000000000004,-2.4699999999999998,60.459306074186976,875.0,903.6458333333334,0.31283142147790854,0.2343726851737539,0.4342088511176262,62.668244951282745,0.29656319061121367,63.92182725798755,0.10625,83,0.006662199999999999,0.0010140688142330381,-6.783074756693453e-08,33.088666666666676,0.014544949486181144,-5.277779209466311e-06,59.23633333333333,0.22044626455341787,0.8099999999999952,-0.0002851042440061416
S094,14116.0,14145.984375,N2,0.46506250000000016,105.13263819157729,-324.19,279.55,603.74,-0.455,0.0,1031.25,1031.25,0.8977686217861977,0.13274201561048155,0.9763790105395661,62.838155297085116,0.35880197799663555,65.94694837519019,0.215625,134,0.007099916666666667,0.0019137781288302176,6.897727565572801e-07,33.076,0.011718930554166463,-2.5694451414514483e-06,61.44166666666667,1.3769025221690743,4.240000000000002,0.002449340942204033
S094,14146.0,14175.984375,N2,-1.813380208333334,95.99522464837999,-343.36,384.02,727.38,-3.01,0.0,1031.25,1031.25,0.5261231372554865,0.14627537173085564,0.5750867990041928,62.89174265253572,0.3362753740907628,63.58458932791813,0.3645833333333333,181,0.007313375,0.0011142470706153999,6.035268564254709e-07,33.076666666666675,0.014907119850000398,-9.305558079850576e-06,61.67733333333333,0.38640163330687705,1.6700000000000017,3.166667525680263e-05
S094,14176.0,14205.984375,N2,2.240651041666667,76.72182553267179,-219.6,195.92,415.52,5.46,0.0,1031.25,1031.25,0.4984306970103488,0.03225804701500421,0.1998263134713633,62.9900682035172,0.3099990047073792,63.28506932918696,0.0,0,0.00659815,0.0012113185491438657,-7.917293814370066e-07,33.07333333333334,0.015563490039906876,1.13194475150425e-05,60.653999999999996,1.0372354281132778,2.970000000000006,-0.0014515976159932772
S094,14206.0,14235.984375,N2,-0.9803229166666666,120.50253223177812,-462.56,390.18,852.74,3.935,0.0,1031.25,1031.25,0.6670701903764618,0.4306759464299502,0.6430686793717206,62.92383918326168,0.45051352812475187,64.66065264130884,0.06458333333333334,45,0.006203183333333333,0.0013230015997932713,3.839080902528457e-07,33.05866666666667,0.009910712498213887,-2.8472229945813354e-06,61.148,0.5478892832193992,1.7999999999999972,-0.0006331251717461952
S094,14236.0,14265.984375,N2,-0.39188020833333315,58.365691555808134,-217.83,162.07,379.9,-6.720000000000001,38.23962034900674,1031.25,1007.9915364583334,0.09126331714087295,0.29720193985833193,0.139563897900647,62.70941894850447,0.18991263153004345,63.28506932918696,0.090625,64,0.005776166666666666,0.0011093513219695354,-2.560586632103578e-07,33.053333333333335,0.01468181036369724,-2.1527783617567923e-06,60.29766666666667,0.35356926085594953,1.0600000000000023,0.0004651737372975629
