participant_id,window_start_time,window_end_time,sleep_stage,BVP_mean,BVP_std,BVP_min,BVP_max,BVP_range,BVP_median,SDNN,median_nni,IBI_mean,x_std,y_std,z_std,mag_mean,mag_std,mag_max,movement_density,burst_count,EDA_mean,EDA_std,EDA_trend,TEMP_mean,TEMP_std,TEMP_slope,HR_mean,HR_std,HR_range,HR_trend
S095,6799.0,6828.984375,W,1.1184322916666667,27.89473278555841,-227.11,113.14,340.25,5.335,44.010943347555845,687.5,695.6868489583334,4.630300898962243,3.8611288468817277,3.5433291135028964,62.31362971398213,0.7699362757547124,68.0808343074613,0.051041666666666666,35,0.04183089166666667,0.01487186497652297,8.982553868965352e-06,30.996,0.022000000000000585,-1.1875003221300855e-05,83.08966666666667,0.7001641870939191,2.469999999999999,0.0012542711735761642
S095,6829.0,6858.984375,W,-0.8695937500000016,147.29935020626917,-823.88,591.59,1415.47,-0.265,0.0,640.625,640.625,17.373516592101947,6.818502388823289,14.349193283012948,62.73476970797116,2.9683614483119096,91.46584061823299,0.06458333333333334,36,0.07621165,0.02641152844297669,3.737095327988098e-05,30.89333333333333,0.03797660098300301,-5.937501610650393e-05,87.54366666666668,1.6690745606140212,5.640000000000001,0.0030037855370511975
S095,6859.0,6888.984375,W,-0.0317604166666668,88.30031085982992,-307.95,410.7,718.65,-1.355,10.988796380719393,625.0,631.6650390625,39.327470817960055,29.00285768891169,24.43540769673294,64.57402899271129,9.137946777868011,116.15937327654622,0.115625,40,0.09707910833333333,0.013412308673252238,1.619253260431115e-06,30.793333333333333,0.03505551153369253,-4.4097234184361744e-05,95.55533333333332,2.9266712984018017,9.739999999999995,0.005270209762969229
S095,6889.0,6918.984375,W,-0.7656875,92.50584397331254,-354.19,307.33,661.52,-5.18,0.0,625.0,625.0,34.61548077568181,26.56298520798674,22.46458611066013,67.47228142682431,17.292989592878932,173.90514655984163,0.12083333333333333,48,0.10053746666666666,0.009658967543111888,7.4546708590144455e-06,30.69333333333334,0.02784879809894034,-4.298612277184282e-05,104.04533333333335,1.815655498405159,5.769999999999996,0.003188125864834488
S095,6919.0,6948.984375,W,-0.11830729166666672,73.21742881009835,-341.49,274.97,616.46,0.195,0.0,625.0,625.0,33.16879100648074,32.070007784619506,21.27564728316646,66.32496349225988,13.34101012231557,124.30205147140573,0.13020833333333334,64,0.09984375833333334,0.00931140708664721,-4.7121377799852925e-06,30.629999999999995,0.028284271247462134,-3.430556486153591e-05,105.095,0.4310123741456473,1.6000000000000085,-0.0006207293350502762
S095,6949.0,6978.984375,W,0.7743437499999999,99.35974044783431,-393.85,320.67,714.52,1.065,0.0,625.0,625.0,31.60671071665618,20.923913087395697,19.244380492901183,67.0848797358574,15.675888943179025,181.07180895987094,0.12916666666666668,62,0.10670698333333334,0.008302356260909041,1.1404148058850935e-06,30.60533333333333,0.018390818965511237,-2.3819450905883524e-05,103.347,0.4772780461464097,1.6800000000000068,-0.0008069099411105533
S095,6979.0,7008.984375,W,0.3414218750000003,77.09177588344744,-303.14,273.73,576.87,1.1749999999999998,0.0,625.0,625.0,9.929858118234314,10.811058379730014,13.49954631278554,63.6216528744147,6.8055487553035094,113.85077953180645,0.09791666666666667,38,0.08956469166666665,0.014434773338363528,7.150044691309865e-06,30.55133333333333,0.03263263533472042,-5.208334746184444e-05,103.86866666666667,0.7479337463230877,2.450000000000003,-0.00048750013224287684
S095,7009.0,7038.984375,W,-0.378265625,18.589069670392153,-122.36,78.35,200.70999999999998,1.0350000000000001,33.36943320664368,625.0,647.8271484375,1.3436090849885949,1.0201948470962137,1.2380150268059036,62.607934408368024,0.7257805803555066,75.45197147855052,0.05416666666666667,35,0.09560608333333333,0.0025012297927997132,-1.4005303278348306e-06,30.461333333333336,0.032937651538761915,-5.70139043549006e-05,98.43966666666668,2.63827277252035,8.25,-0.00471573044589042
S095,7039.0,7068.984375,W,0.24228125000000028,49.51637599597799,-296.34,247.6,543.9399999999999,1.455,53.48226802419167,796.875,761.181640625,5.006308411887002,3.834601098106193,9.746344578296465,62.75803034397998,2.9234045239674638,84.52810183601665,0.05625,23,0.10256546666666667,0.007796783092974237,1.2791228730259527e-05,30.338666666666665,0.04402524528293142,-7.57639094411658e-05,88.617,2.353176788938734,7.8300000000000125,-0.0040955219443147665
S095,7069.0,7098.984375,W,-0.1061145833333333,21.870057086959573,-109.05,196.73,305.78,0.33,56.60375805687308,765.625,788.7369791666666,1.6250851339878576,0.952062249037145,1.441556775676907,62.83229715878651,1.0559042333227566,75.23961722390672,0.007291666666666667,3,0.12203452499999999,0.002854250943658423,-4.888835961598299e-07,30.247333333333337,0.013399834161494236,5.8333349157265775e-06,83.23533333333334,1.03211347352034,3.530000000000001,-0.0017122921311556333
S095,7099.0,7128.984375,W,-0.22717708333333342,11.908483270424275,-54.01,63.66,117.66999999999999,0.275,147.80953315372201,812.5,840.6819661458334,2.15208207284571,1.0274023338281628,0.9322020441093587,62.590961498911746,0.6330128817131564,68.37397165588672,0.08020833333333334,55,0.1267633,0.0024131669599649903,3.398757432388629e-06,30.285333333333334,0.01765093639316459,2.3958339832448443e-05,79.90400000000001,1.5279999999999994,4.099999999999994,-0.0026966673981845143
S095,7129.0,7158.984375,W,0.1579635416666667,28.70075921921034,-162.32,143.31,305.63,0.165,120.7306524256075,703.125,713.8020833333334,0.48717938174762687,0.11987768650679835,0.5788808872274349,62.44757616141045,0.17447033609048296,63.631753079732135,0.014583333333333334,11,0.13186531666666665,0.0018768481957052955,2.010001847331232e-06,30.31333333333333,0.014681810363696516,4.861112429772156e-07,77.59466666666667,0.28631839309101625,1.0,-0.00018368060538210857
S095,7159.0,7188.984375,W,-0.1110989583333333,17.684975237666404,-98.0,103.69,201.69,0.77,87.16747701194073,703.125,702.8564453125,1.0516521393608356,0.4678359142993763,0.6256108126374486,62.306228615914925,0.4489810627172667,65.52098900352466,0.175,99,0.13434159166666668,0.0015703973355801508,1.7851743123845306e-06,30.241333333333333,0.04279667692187676,-7.298613090986503e-05,76.90799999999999,0.33967042850386625,1.2600000000000051,0.00034479176019741733
S095,7189.0,7218.984375,W,0.06176562499999981,14.574367237453284,-56.04,46.15,102.19,1.605,25.337353763786677,750.0,740.7063802083334,0.47172550980122135,0.3598185668384369,0.5171368828033401,62.34219631797658,0.3299872485452141,63.631753079732135,0.14479166666666668,60,0.13719176666666666,0.0015495405433726308,1.9273464429650694e-06,30.086,0.04744119166575193,-8.138891096704288e-05,79.55833333333334,1.1107447451547492,3.3699999999999903,0.0019841324826748263
S095,7219.0,7248.984375,W,-0.026286458333333356,13.261137968516314,-85.93,94.64,180.57,0.885,43.895279647746115,703.125,718.8395182291666,0.4692069531992845,0.33134170638313687,0.5769357136703649,62.28409370726616,0.30619339937967666,63.4428877022476,0.11770833333333333,69,0.140618175,0.001561407376175416,2.0499404432347127e-06,29.96133333333334,0.031276544281972955,-5.1180569439173476e-05,82.38233333333334,0.8015347084742426,2.0500000000000114,0.0013040628537496894
S095,7249.0,7278.984375,W,-0.03779166666666658,19.735505697175938,-114.7,155.29,269.99,0.74,80.55466527191106,765.625,788.5579427083334,1.8016771579828674,0.8060077155337907,2.101709580251806,62.52918798907529,0.7126998621784623,66.27216610312357,0.05625,26,0.1394864583333333,0.004704410324181331,-6.127885559864787e-06,29.87933333333334,0.017688665548561758,-1.3472225876797097e-05,81.47366666666667,1.3016361071956906,3.6599999999999966,-0.0022695492267657364
S095,7279.0,7308.984375,W,-0.2531927083333334,23.1397315636518,-109.79,185.1,294.89,1.29,44.34410763083234,765.625,779.6712239583334,0.8300325252997954,0.3227217153455211,1.1959930206968417,62.6503241320336,0.34672681531779936,64.85368146836385,0.019791666666666666,11,0.13915579166666667,0.0024177807727191773,3.714945235173941e-06,29.926,0.027999999999999404,4.416667864764409e-05,78.69399999999999,0.5741172934746592,1.8600000000000136,-0.0010255558337553823
S095,7309.0,7338.984375,W,0.23051562500000006,10.029720931995774,-51.47,29.33,80.8,1.885,43.44751375252839,765.625,779.5166015625,0.254795584597841,0.1874276480775686,0.045595976308831845,62.048537291747195,0.19326998729898193,63.25345840347388,0.10520833333333333,81,0.1440121583333333,0.002167011859665415,2.582407601564566e-06,29.91666666666667,0.017384539747206697,-1.777778260030957e-05,75.94933333333333,0.6393222105393246,2.1700000000000017,-0.0006500696207871149
S095,7339.0,7368.984375,W,0.03557291666666667,9.493375918946493,-22.39,17.48,39.870000000000005,1.9049999999999998,50.73542100079833,765.625,764.9495442708334,0.17399263633843817,0.2382571993782256,0.06441510347391793,62.05924269600306,0.23358652627609358,63.25345840347388,0.08958333333333333,77,0.1453785333333333,0.0015860865515125223,1.6166935809173108e-06,29.866,0.015832456116050487,-1.708333796748531e-05,76.46866666666668,0.37878519271774946,1.0499999999999972,0.0006690974037265102
S095,7369.0,7398.984375,W,-0.08994791666666661,24.316844598904837,-115.89,184.1,299.99,0.46499999999999997,40.28914097651384,734.375,751.904296875,0.6869315832017043,0.5688072315527175,3.2359188478592222,62.39094033112078,0.6682860653887874,66.79820356865893,0.029166666666666667,12,0.14748145833333334,0.0015800732783420334,-7.97793185165272e-08,29.854000000000003,0.009521904571390563,-5.555557062595141e-07,77.43033333333332,0.40651759562847384,1.0899999999999892,-0.0002783681310677442
S095,7399.0,7428.984375,W,0.40733854166666666,19.019856629267466,-51.25,149.1,200.35,1.83,44.59791046174373,781.25,781.34765625,0.19030026985880324,0.06441510347391795,0.18533179237219094,62.68192549075755,0.08641048038046657,63.13477647065839,0.01875,12,0.14901857500000001,0.001198023140166753,1.1453980971674564e-06,29.887333333333334,0.02768071932270167,4.583334576642311e-05,76.05233333333334,0.6567530400048053,1.8999999999999915,-0.0011673267055465205
S095,7429.0,7458.984375,W,-0.316265625,12.461653739332782,-40.43,31.38,71.81,1.17,87.03635766355657,734.375,716.40625,0.22219509383022437,0.03225804701500421,0.2130482103434703,62.6771835862922,0.06317454834920293,62.80923498976882,0.009375,9,0.15188937500000002,0.0013492526021375714,1.314730174351722e-06,29.970000000000002,0.028284271247462307,4.6944457178943984e-05,76.81433333333334,0.833385398373539,2.6500000000000057,0.0014129517721765876
S095,7459.0,7488.984375,W,0.0535885416666667,11.777287343631047,-41.81,54.98,96.78999999999999,2.03,34.382763380910134,734.375,738.7858072916666,0.5422983096020327,0.16923797758055237,0.3018964939437945,62.50642578837198,0.20883046412502856,63.631753079732135,0.026041666666666668,11,0.154739475,0.0012734608354303598,1.3552249770032984e-06,30.028,0.02271563338320111,3.270834220603855e-05,77.51500000000001,0.4848625234710008,1.5,0.0008171182772130752
S095,7489.0,7518.984375,W,-0.0019062499999999982,9.483628943010736,-24.34,15.16,39.5,2.6100000000000003,28.55865042816253,765.625,759.4807942708334,0.07880950133074055,0.0,0.11599041357658255,62.37888543228401,0.026341842238743324,62.68971207462992,0.008333333333333333,8,0.15695987500000003,0.001450190008024808,1.7171742939383351e-06,30.082666666666668,0.020965580258021404,3.104167508725929e-05,77.81433333333332,0.35631150541189227,1.0999999999999943,-6.781251839532425e-05
S095,7519.0,7548.984375,W,-0.009385416666666672,16.02321639636647,-50.86,81.82,132.68,1.35,35.4981466878158,750.0,752.5472005208334,0.05581428468591172,0.0,0.2157809420003434,62.37374926493873,0.028623438320314207,62.68971207462992,0.003125,3,0.15935098333333333,0.0011029673837980112,6.483899328314725e-07,30.138666666666662,0.016069294390925616,2.062500559489115e-05,79.086,0.378696008252882,1.25,-0.0003480556499716944
S095,7549.0,7578.984375,W,-0.036609374999999895,18.05106014065597,-82.53,142.36,224.89000000000001,1.06,44.54205699757952,796.875,797.0458984375,4.162174531611718,1.5495841175941372,3.0990337875968166,62.77014121587096,0.8696244819568678,69.94998213009065,0.01875,4,0.15014997500000002,0.004690065853237922,-3.947364569055064e-06,30.19,0.027325202042558866,4.3333345088255457e-05,77.414,0.6336960364927866,2.1899999999999977,-0.001111875301615479
S095,7579.0,7608.984375,W,0.07157812500000002,12.429240999853455,-26.85,20.52,47.370000000000005,2.54,30.0065768061752,812.5,810.5794270833334,0.4948070173057371,0.0,0.04564354645876384,62.86541297478435,0.23991632531096627,63.14269553954757,0.428125,183,0.15113169166666668,0.0015017079043311203,1.7167984257808273e-06,30.281333333333333,0.02617038190185347,4.368056740466687e-05,74.86266666666667,0.4622692817924292,1.5499999999999972,-0.0007284724198330134
S095,7609.0,7638.984375,W,-0.009921875000000005,12.577217496004955,-36.9,23.89,60.79,2.285,56.78318309321792,781.25,774.7151692708334,0.4245082428691919,0.13678792892649552,0.42961142003236164,62.75882177809345,0.22839445156125132,63.53739056650029,0.21770833333333334,118,0.15266858333333336,0.0012184532242651878,-4.924480502517511e-08,30.345333333333333,0.01910206504252688,2.215278378710629e-05,74.91933333333333,0.6899755229152871,1.8900000000000006,0.0011973614359161902
S095,7639.0,7668.984375,W,-0.10006770833333332,11.421478598711825,-36.15,27.27,63.42,1.6150000000000002,46.53336466115974,781.25,783.5042317708334,0.2892083903616137,0.08523227047636098,0.32461916789781015,62.70507328834251,0.1575613222258873,63.53739056650029,0.096875,67,0.15514511666666664,0.002042635500129397,1.440838064463449e-06,30.378666666666664,0.01687865186822919,1.9930560962065808e-05,75.99533333333333,0.33807034113562234,1.210000000000008,0.0003972917744389588
S095,7669.0,7698.984375,W,0.05780729166666667,12.817595439405947,-30.81,25.84,56.65,2.435,34.438657099244004,796.875,790.7633463541666,0.07198059875565235,0.0,0.26339134382131846,62.65972775771967,0.035009452830086295,63.14269553954757,0.005208333333333333,5,0.16070622500000004,0.0026812171255560435,4.139775645555464e-06,30.41266666666667,0.012364824660660675,8.611113447024948e-06,76.70366666666668,0.5052951832565025,1.2999999999999972,-0.0008524655090238477
S095,7699.0,7728.984375,W,-0.04175520833333328,13.45721795529548,-39.84,24.96,64.80000000000001,2.085,34.97674017754954,781.25,788.1184895833334,0.13306858481207687,0.1701587290019397,0.44526833357975154,62.66884312855997,0.17217024890448465,64.01562309311689,0.026041666666666668,10,0.16374816666666667,0.0012374730389880062,-1.2649178778531528e-07,30.427333333333333,0.011234866364234906,9.44444700641446e-06,76.93966666666667,0.38046886279373265,1.269999999999996,0.0002806597983560657
S095,7729.0,7758.984375,W,0.14985416666666668,14.614895621975293,-69.06,57.48,126.53999999999999,2.175,52.68907838616434,796.875,784.7900390625,1.497428351096194,0.7721019965364394,1.4457639122382864,62.712155199547816,0.352323565057568,65.30696746902278,0.08541666666666667,54,0.16422858333333334,0.002541375259524301,2.0638855425036662e-06,30.442666666666664,0.012092238098144446,7.291668644658222e-06,76.07433333333333,0.20074334083323644,0.6500000000000057,-0.0003555903742378408
S095,7759.0,7788.984375,W,-0.11430208333333335,13.226004692949127,-77.54,40.46,118.0,1.995,50.0045350455272,812.5,799.6744791666666,0.0,0.0,0.4896841651485397,62.697642782370835,0.01952436648927187,62.72160712226688,0.39895833333333336,157,0.17046204999999998,0.001511575733299525,2.1227622945861252e-06,30.46466666666667,0.015434449203719973,1.2777781243972504e-05,75.72233333333334,0.4003388842246308,1.2000000000000028,-0.000671909904489449
S095,7789.0,7818.984375,W,-0.10811458333333336,12.11102257017152,-45.17,27.27,72.44,2.0549999999999997,66.17061471170545,812.5,802.1240234375,0.2722220007793884,0.14021545301388463,0.4795786272575356,62.67118299884961,0.15781273090428857,63.75735251718032,0.015625,7,0.17361086666666664,0.001619435760449366,1.6281909798695138e-06,30.48200000000001,0.009797958971132503,7.083335254810844e-06,74.92433333333332,0.1487208421469191,0.45000000000000284,-9.375002543099864e-07
S095,7819.0,7848.984375,W,0.08680729166666666,34.37170734934034,-135.36,312.03,447.39,0.495,79.21373699644968,812.5,808.0485026041666,2.564470575303453,1.0739982412565778,1.6475781890061816,62.66042053590179,0.9330898120065498,70.66823897621902,0.04583333333333333,19,0.18541638333333335,0.0024359204632039117,-3.8712163279123786e-07,30.51,0.023094010767585972,3.7083343392835885e-05,74.14200000000001,0.4236696826538334,1.75,-0.000220138948605401
S095,7849.0,7878.984375,W,-0.10327083333333337,9.670117002565997,-33.12,21.52,54.64,1.3849999999999998,69.62162388138839,828.125,820.5078125,0.116252053446619,0.12827311899051788,0.13686723088047367,62.6289711637951,0.10454328220411824,63.51377803280167,0.019791666666666666,8,0.18652661666666667,0.0010977288765396012,7.859042930512978e-07,30.576666666666664,0.02440400695696365,3.4722231641229626e-05,73.42233333333334,0.2907081392431626,1.0699999999999932,-0.0004682987381452742
S095,7879.0,7908.984375,W,0.10958854166666665,10.774413870730294,-36.12,47.37,83.49,1.17,49.21198938081323,765.625,766.3411458333334,0.22821535501339274,0.22313073833268443,0.46917920165315186,62.64621021562332,0.18888873250233734,63.984373092185564,0.04895833333333333,17,0.18807448333333335,0.001230128793957044,1.006875273132395e-06,30.65466666666667,0.029970355723986184,4.6319457009402755e-05,73.58300000000001,0.46936233338434813,1.75,0.0007387154781671761
S095,7909.0,7938.984375,W,0.019192708333333346,9.835615264411787,-27.45,19.05,46.5,1.65,45.98851376560981,812.5,809.7981770833334,0.1329706982655285,0.1247871451601575,0.09681898021852717,62.62231758587516,0.12301154603144192,63.96092557178953,0.013541666666666667,9,0.1903477666666667,0.0016640218334571853,2.128514032257492e-06,30.726,0.01890326250501003,2.6666673900464358e-05,75.81833333333334,0.3674332894856195,1.4000000000000057,0.0004614931807435944
S095,7939.0,7968.984375,W,0.14775520833333325,66.22843826415377,-519.9,294.3,814.2,3.255,34.51223625731085,781.25,784.2936197916666,2.407560970440601,1.3489543114483158,1.4854323719366098,62.704132030777956,1.4223488555083261,74.65252842335616,0.041666666666666664,16,0.18874659166666669,0.003866591781952663,-4.736554453275399e-06,30.805333333333333,0.04667142832849929,7.784724333963882e-05,76.02066666666666,0.15189762634382872,0.4399999999999977,-0.00019625005323623636
S095,7969.0,7998.984375,W,-1.1589791666666662,47.47059515834055,-402.85,193.32,596.1700000000001,3.66,71.5788554455232,750.0,744.5231119791666,3.4657494529803126,1.5239693694063832,2.728776808986746,62.702882345821294,1.1445540002227101,74.74623736349542,0.03229166666666667,17,0.186569275,0.0021781642383840133,1.7582463536909615e-06,30.952,0.022715633383200613,3.395834254512258e-05,76.60766666666667,0.3941377367818967,1.4399999999999977,0.00067871546189113
S095,7999.0,8028.984375,W,1.0723697916666663,25.13438839225728,-229.81,206.0,435.81,3.1799999999999997,45.87635492049973,718.75,726.3264973958334,1.3283696670062224,0.6723681975343239,0.8932229409404028,62.77421697376919,0.6121818875788685,71.63797875428926,0.052083333333333336,21,0.1903904416666667,0.0019053462143655713,2.5888186276092132e-06,30.990666666666666,0.015902480589169706,4.2361122602301016e-06,76.402,0.9357471168358833,2.469999999999999,-0.0016057643244803408
S095,8029.0,8058.984375,W,-0.08567187500000013,16.08549175391448,-71.29,96.52,167.81,0.835,36.05918737719121,796.875,796.6796875,0.10172129679778086,0.05589199343873464,0.33530665897884515,62.83787552315311,0.06726616323032461,63.419239982831705,0.013541666666666667,7,0.19377395000000003,0.0011715295760244423,1.1358870268790802e-06,30.987333333333336,0.013399834161495011,7.500002034506303e-06,74.15566666666668,0.413833165525539,1.3199999999999932,-0.0006650349026244846
S095,8059.0,8088.984375,W,-0.11172395833333333,11.536743126891764,-36.25,30.15,66.4,2.2350000000000003,52.85146202772686,750.0,747.9899088541666,0.7905007862460072,0.5239904314223898,0.7768766481166035,62.77415084384813,0.37603523833136726,64.4437739428721,0.19375,83,0.19575949999999998,0.0014258219909932678,1.8547817531417554e-06,31.000666666666667,0.013399834161495743,9.583335932980905e-06,75.143,1.4301425336890958,3.75,0.002478299283392818
S095,8089.0,8118.984375,W,0.10778125,10.201246725996212,-28.65,18.37,47.019999999999996,3.0700000000000003,52.75323726690139,781.25,779.8990885416666,0.3013838885273878,0.26506476868347145,0.04559597630883185,63.0770327341299,0.27084704940849064,63.190189111918315,0.0,0,0.19816120833333334,0.0011139708620952367,1.0113190677406261e-06,31.011999999999997,0.013012814197296147,1.1875003221301558e-05,78.26933333333334,0.43814710873049095,1.3800000000000097,0.0006136807220271039
S095,8119.0,8148.984375,W,-0.09154687500000014,47.89939282466701,-211.76,205.69,417.45,1.0350000000000001,30.483835512435686,734.375,744.384765625,11.812525306777712,13.468926268503695,10.145324197954308,63.23807842805448,5.24599244445043,131.45721737508367,0.058333333333333334,23,0.1961329,0.004297953380001539,-4.113142608816892e-06,31.015999999999995,0.012806248474865906,-1.041666949237383e-06,79.23,0.43288951631257355,1.5700000000000074,0.0007665974301750852
S095,8149.0,8178.984375,W,0.17920312500000002,8.5757964669221,-27.3,23.87,51.17,1.025,47.32213631015298,750.0,775.3499348958334,0.3188095668742636,0.3218800565945851,0.48065777954971944,62.53423385923657,0.2598313009988909,63.8200595424354,0.07395833333333333,39,0.19547126666666667,0.0012734324071404673,1.4508315567576967e-06,31.042666666666666,0.016719914938645955,1.7152782430767794e-05,80.19866666666667,0.31152028648049485,1.019999999999996,0.0004559723459126399
S095,8179.0,8208.984375,W,-0.03773437500000001,10.23238563348548,-24.16,57.7,81.86,-1.07,25.716556594079062,859.375,847.9085286458334,0.03225804701500421,0.045595976308831845,0.28012893856619353,62.4769326769389,0.06898029607325719,63.2771680782255,0.0875,38,0.19753153333333334,0.0010740328512459664,4.959289539737797e-07,31.08,0.02236067977499742,2.562500695122746e-05,78.33833333333332,1.1741751241711014,4.329999999999998,-0.0020857991769203483
S095,8209.0,8238.984375,W,-0.13517187500000002,7.559840501489366,-22.35,19.56,41.91,-0.175,27.881528033900892,828.125,815.9098307291666,0.21644369536645983,0.19429526767697317,0.2738592976887138,62.49103347831155,0.17352179271743554,64.29618962271404,0.041666666666666664,22,0.198801525,0.0009038255359166348,4.4768697040119364e-07,31.194,0.04111771718695838,6.972224113559117e-05,75.75533333333333,0.5482440656820244,1.8199999999999932,0.0006996529675707911
S095,8239.0,8268.984375,W,0.036161458333333424,10.001805707021834,-31.39,42.66,74.05,0.03,45.57913601535401,828.125,829.2643229166666,0.42278707990022063,0.42892261466959275,0.40267659169611536,62.53428348643329,0.31763003384342375,64.59876159803684,0.103125,58,0.2000180916666667,0.0013226205678868092,1.6549750583157188e-06,31.287999999999997,0.01579029237643568,1.8263893843286785e-05,76.618,0.9868650701421481,2.7900000000000063,-0.0015997226561747647
S095,8269.0,8298.984375,W,-0.013859374999999948,7.768039009501773,-25.99,32.01,58.0,0.17,100.90204633894123,796.875,854.6630859375,0.30138388852738773,0.36110844016106236,0.24302554378203858,62.52159892544343,0.21330996068446376,63.2771680782255,0.1,64,0.20192865,0.001165287615784192,8.000692274493373e-07,31.3,0.013416407864998453,3.263889774275585e-06,73.71566666666666,1.1709132712924932,3.4499999999999886,-0.0020217713817739197
S095,8299.0,8328.984375,W,0.0947604166666667,10.76251679464891,-57.27,29.74,87.01,1.07,108.66319096502549,796.875,816.7724609375,0.1676759803162039,0.3784777968498725,0.3539889259881193,62.529688500931485,0.27863831361080565,64.07027391856539,0.12395833333333334,63,0.20402094999999995,0.0013249046937421557,1.5361996354708193e-06,31.31733333333333,0.02220110107379595,2.9930563674741025e-05,71.674,0.6166068439451526,1.7800000000000011,0.000955347481376815
S095,8329.0,8358.984375,W,-0.031088541666666563,18.69414655247716,-70.85,136.83,207.68,1.145,52.010517718482255,812.5,825.3336588541666,0.2969462633766139,0.3763632627602694,0.3669920431320306,62.557381461674126,0.3179748290756486,63.474404290233394,0.15208333333333332,95,0.2073621833333333,0.0016184982544699346,7.264589644257163e-07,31.387333333333334,0.016918103387265668,1.4305559436186606e-05,72.79533333333333,0.20837039670313487,0.6499999999999915,-0.00015277781922141265
S095,8359.0,8388.984375,W,0.03180729166666656,11.128450004116184,-32.55,30.88,63.42999999999999,0.885,40.421479846353435,781.25,793.408203125,0.09654963281764578,0.29292696461272083,0.17116012950028855,62.52618169204605,0.24268226122783765,63.8200595424354,0.09270833333333334,64,0.20987019166666668,0.001129148021709538,1.0426411248483984e-06,31.39333333333333,0.012736648783028263,1.3194448023667258e-06,74.24433333333333,0.7626824736124168,2.160000000000011,0.0013485073102504632
S095,8389.0,8418.984375,W,-0.027119791666666813,32.68833735999202,-153.52,222.97,376.49,0.55,54.05627948055815,828.125,825.9033203125,1.5041594528912892,0.8628113115710757,1.4664062268765168,62.705628338216684,0.9292737537651478,73.74279625834649,0.03333333333333333,14,0.21489776666666666,0.0028329788201741893,3.6736845903007203e-06,31.426000000000002,0.01959591794226501,2.972223028489256e-05,75.89833333333334,0.3998506665688523,1.1500000000000057,0.0006735071271449451
S095,8419.0,8448.984375,W,0.01051562499999997,10.277123168452713,-28.54,33.84,62.38,1.6,30.48349224902194,812.5,804.8177083333334,0.4841229182759271,0.48358021711903065,0.4885805332798269,62.69639544895588,0.4649348070534858,63.474404290233394,0.225,156,0.21580509166666667,0.0016284934806738444,8.051132826370646e-07,31.478666666666673,0.024594488994262812,3.8819454974896166e-05,75.54833333333333,0.6013766614102096,1.6500000000000057,-0.001038021114914584
S095,8449.0,8478.984375,W,-0.06694791666666665,17.003215423774627,-79.62,147.29,226.91,2.005,26.147954836994252,812.5,812.5732421875,0.9830508068705751,0.9535000400570987,1.6987660835433531,62.705885026968275,0.5701824134746384,66.37770710110436,0.20208333333333334,136,0.21980779166666664,0.003983402609360986,5.436131899992382e-06,31.573333333333327,0.03505551153369233,6.0069460739327255e-05,73.87833333333334,0.3595653239986039,1.1099999999999994,-0.000630798782226229
S095,8479.0,8508.984375,W,0.09707812499999999,10.325838835686094,-25.37,30.85,56.22,1.78,66.88794477202373,812.5,820.6787109375,0.09090593428863096,0.1359125535858341,0.3855911767086425,62.72232805828262,0.11717344339735739,63.56886030125127,0.017708333333333333,8,0.22847485833333328,0.001637320882294373,1.4643708399443485e-06,31.72266666666667,0.04661425628376828,7.951391045841647e-05,73.71733333333331,0.3481659885105884,0.8799999999999955,0.0005888196041719829
S095,8509.0,8538.984375,W,0.02808333333333335,10.732397229171227,-27.16,33.91,61.06999999999999,1.6749999999999998,33.12392319022669,796.875,789.8844401041666,0.0,0.04559597630883185,0.13928372696486196,62.7181147837165,0.04024479129819684,62.72160712226688,0.0,0,0.23121785000000003,0.0010587103133057607,1.1030836325639094e-06,31.836666666666662,0.028905977851572645,4.7083346105509835e-05,74.24966666666666,0.2774825319827467,0.8599999999999994,0.00044781262147695054
S095,8539.0,8568.984375,W,-0.05783333333333333,10.948779911732428,-31.56,62.1,93.66,1.455,30.09756101581795,796.875,786.4420572916666,0.12059963032005251,0.09107288747664329,0.12059963032005251,62.72041206236489,0.11140344316995221,64.5445582524197,0.008333333333333333,4,0.23391862499999996,0.0014232221310726619,1.8066886411373313e-06,31.973666666666666,0.051412276960101866,8.91319686230383e-05,75.38433333333333,0.3122038151948534,1.0999999999999943,0.000481354297242377
S095,8569.0,8598.984375,W,0.06279687499999999,10.530519022128344,-23.73,28.51,52.24,1.3250000000000002,69.60913050501935,781.25,801.3427734375,0.2751873572626879,0.269636779864238,0.31862742741327216,62.719806186349516,0.18221858691698734,64.53681120105021,0.028125,13,0.23761194166666666,0.0015685504789233165,2.2154456964642238e-06,32.17966666666667,0.06896778636113714,0.00012156253297594609,77.03400000000002,0.613865348970494,2.030000000000001,0.0010918058517268472
S095,8599.0,8628.984375,W,-0.08058333333333338,13.97866629655904,-91.08,35.02,126.1,1.64,93.05543215507815,781.25,809.5296223958334,0.5273251668536428,0.4482992552104255,0.6884455303536285,62.65785453961683,0.30196218121411283,63.82789358893179,0.17291666666666666,78,0.24093122500000003,0.0022024636374694097,2.6273937248789323e-06,32.431666666666665,0.06763053222390734,0.00011947919907747479,78.06466666666668,0.14474652173905783,0.5,-0.00015819448735744345
S095,8629.0,8658.984375,W,-0.0037604166666666736,11.87901910604434,-39.27,42.2,81.47,1.09,67.09045528334903,718.75,744.7509765625,0.47301187551159857,0.4709208989369187,0.5115166718256166,62.5535451560385,0.4218373439894766,64.42049363362563,0.125,93,0.24540390833333334,0.001408052236222281,1.936787634762277e-06,32.696000000000005,0.07675067860720629,0.00013708337051957753,77.77333333333333,0.5750091786707019,1.8499999999999943,-0.0007736807654298943
S095,8659.0,8688.984375,W,0.0003802083333333132,12.79073608495715,-54.5,30.55,85.05,2.525,48.221073858565006,765.625,767.3095703125,0.46679685683984157,0.4126880358461529,0.4307502639935994,62.533916617668936,0.3664320597720573,63.56886030125127,0.21770833333333334,108,0.24855237500000005,0.001391645764688337,1.7047819294655778e-06,32.97233333333333,0.0792751887765371,0.00014114587162160203,76.804,0.40042976912312656,1.1500000000000057,0.0006925696323159817
S095,8689.0,8718.984375,W,-0.08725520833333328,38.812979647029195,-223.6,215.98,439.58,1.4,30.747501916218553,796.875,792.4641927083334,0.4601278788886364,0.4920361870584317,0.8246941510089261,62.51186920205082,0.40640767589075033,65.26101439603893,0.25625,125,0.25132755833333337,0.001471578754240006,1.4328039911035191e-06,33.230666666666664,0.06697926710723454,0.00011812503204346628,77.35433333333334,0.4904670110098017,1.4899999999999949,0.0005785765458378204
S095,8719.0,8748.984375,W,0.050713541666666626,14.638264549532787,-48.27,82.0,130.27,1.865,79.02765617815646,796.875,809.3424479166666,0.05581428468591172,0.4931815908944921,0.1592592172022985,62.562439433298564,0.4214623211877024,63.56886030125127,0.41770833333333335,205,0.25491435,0.0011091730827512908,1.130883119271684e-06,33.406,0.045210618221828903,7.722224317009563e-05,77.867,0.247442249154559,0.789999999999992,-0.0004407292862221376
S095,8749.0,8778.984375,W,0.07022395833333332,10.23245236784708,-25.89,20.23,46.120000000000005,1.63,70.09784806047752,828.125,845.8902994791666,0.03225804701500421,0.48385276506793773,0.18943160136899603,62.73463396955205,0.41088405460096333,63.15853069855251,0.0020833333333333333,2,0.2574546750000001,0.0013226480519680918,1.4000687391679484e-06,33.559333333333335,0.04178782385123956,7.215279735047712e-05,76.22066666666666,0.991123716910367,3.030000000000001,-0.001724444912230065
S095,8779.0,8808.984375,W,0.2670468749999994,76.22065746880546,-284.49,370.19,654.6800000000001,1.7650000000000001,41.548446790684196,796.875,808.5286458333334,39.268008021709676,39.84259937064065,30.47831765734819,63.954247698040454,8.12038544103791,133.90668392578468,0.09895833333333333,48,0.21391373333333336,0.1194018388906925,-7.040274088616017e-05,33.62433333333333,0.024857370916669657,6.770835170038724e-06,73.954,0.28237799725427126,0.8500000000000085,-0.00034201398166611933
S095,8809.0,8838.984375,W,-2.3936874999999986,112.1900880256095,-615.32,521.03,1136.35,-3.29,0.0,796.875,796.875,23.717167524248417,13.752316566218944,18.206287904755143,64.28929136293479,7.621552185634116,129.0116273829611,0.06770833333333333,40,0.17521208333333332,0.02983710962363908,-5.67356751127591e-06,33.64466666666666,0.05754611677216384,-5.798612684085364e-05,77.03566666666669,2.2793620208782586,7.230000000000004,0.003993021916509851
S095,8839.0,8868.984375,W,2.2830677083333337,112.91852208338283,-295.45,488.59,784.04,-3.09,88.35376023481874,796.875,734.47265625,16.347961136892067,21.113444792318088,20.677879786298142,64.04874051016303,4.684469631502421,91.72785836374901,0.09791666666666667,57,0.16217928333333334,0.019798353997316432,-2.679806412707902e-05,33.486,0.06129709074118729,-9.027780226719928e-05,85.50633333333334,1.868752673725327,6.280000000000001,0.0033441328515985396
S095,8869.0,8898.984375,W,-0.17888020833333332,20.443301099377678,-61.82,79.62,141.44,0.78,66.48251959381696,609.375,646.4111328125,3.0784235613807094,1.0592659112958054,3.130070712448931,63.111985265517774,0.5935619976610718,67.79380502671317,0.13333333333333333,98,0.14343595,0.004412173768582407,-5.561267133590264e-06,33.269000000000005,0.08584287972802428,-0.00014795142902328308,90.05999999999999,0.9605415139388832,3.8800000000000097,0.001674097676350282
S095,8899.0,8928.984375,W,-0.07977083333333329,25.079497339908603,-106.18,85.13,191.31,1.5750000000000002,62.62431814262877,750.0,748.193359375,3.2844224082105447,1.1849296011671842,5.4345632834292426,63.07498351731472,0.8729715290190025,72.44998274671983,0.1,82,0.1367327916666667,0.003410143427814128,-2.301691162568104e-07,33.065000000000005,0.07360932911889231,-0.0001228819777783149,91.96033333333334,1.4044844447538598,4.700000000000003,-0.0023308686878441543
S095,8929.0,8958.984375,W,0.13958854166666657,30.119742269182055,-102.91,144.06,246.97,1.2149999999999999,67.94534867443026,765.625,794.8323567708334,1.1820984607186211,0.5006408653332912,1.7636176519365592,62.972348924926635,0.47537270706714957,68.0808343074613,0.059375,42,0.13348763333333336,0.0033531075783848987,-4.1389724769348146e-06,32.91899999999999,0.02947880594596769,-1.0069447175966277e-06,85.43599999999999,2.8955029499783507,10.280000000000001,-0.0049932652433987736
S095,8959.0,8988.984375,W,-0.14116145833333318,20.434807374993724,-96.85,64.58,161.43,2.1399999999999997,88.35616744808131,718.75,721.2646484375,1.5094479652251092,0.5481027884135116,1.415455594474993,63.163917031686,0.44698271512575766,64.95382975621992,0.036458333333333336,32,0.13230285833333333,0.0015720107362644045,1.9653065227068456e-07,32.85633333333333,0.025492918406664518,-3.718751008775741e-05,75.02733333333335,0.9473187894731568,3.8700000000000045,-0.0012368058910606264
S095,8989.0,9018.984375,W,0.2976510416666666,18.101736379451136,-59.06,62.45,121.51,1.795,100.07926660343708,718.75,704.00390625,4.66655215168276,2.01103617397986,6.340712446689033,63.209167951620024,0.6543471534477179,67.17886572427373,0.08854166666666667,67,0.12100989999999999,0.007734789273578605,-1.0764232086651498e-05,32.741,0.059629411087707314,-0.0001019097498670128,74.17933333333333,0.37957812839461164,1.6700000000000017,0.00023000006239150972
S095,9019.0,9048.984375,W,-0.05852604166666673,18.706374372132178,-51.32,55.95,107.27000000000001,0.165,263.20678269066053,828.125,724.3896484375,1.4701452445015615,0.4629314804110384,1.5967737519544074,63.09176050661717,0.49430709988351335,66.35510530471637,0.13020833333333334,94,0.11907794166666666,0.004199284907965151,3.602866211715009e-06,32.63366666666666,0.02198231612506253,-3.4618064946305196e-05,76.278,0.4086677542127991,1.5,-4.2916678308560735e-05
S095,9049.0,9078.984375,W,0.47680208333333346,40.80564877514912,-131.64,414.12,545.76,0.825,170.14378270314413,828.125,820.0520833333334,10.114789089908564,8.644994688241411,16.147739000441792,63.19107624257681,1.3671625012576616,77.62087348130012,0.05416666666666667,31,0.12508750833333335,0.007728679710441962,1.0272337638980479e-05,32.50933333333333,0.06423567717571216,-0.00010305558351117301,75.38566666666665,0.25923841450594315,0.9500000000000028,-4.954862455203504e-05
S095,9079.0,9108.984375,W,-3.036583333333333,93.75392922595594,-492.1,512.57,1004.6700000000001,2.08,33.60969007568918,640.625,650.9684244791666,16.49639783386226,11.38041876235656,15.615413586999724,65.24508341173377,8.50446739048958,132.66876045248935,0.065625,23,0.1472785,0.007808726269373257,3.085310732777432e-06,32.472,0.026882460204875055,3.76388990990941e-05,76.387,2.0907943466539205,6.449999999999989,0.0032975356167360046
S095,9109.0,9138.984375,W,1.8155364583333333,132.3520434372053,-347.81,717.85,1065.66,-7.88,50.64018021917591,546.875,568.408203125,18.64634190996357,10.48535167871774,16.62708943506341,64.18882447264932,6.523596616853123,117.52871989433051,0.075,43,0.14442865833333335,0.015127383241710946,-1.602382183805931e-05,32.476666666666674,0.018135294011647828,-2.0138894351913876e-05,82.11433333333335,1.092869871281826,3.769999999999996,0.0019571880309212316
S095,9139.0,9168.984375,W,0.8180364583333336,41.050794717346875,-173.96,251.93,425.89,0.665,11.559928974775262,546.875,548.6246744791666,16.37010499222889,13.700210359293353,11.783314916298666,64.33945353251562,3.2955668410652676,95.89056262218926,0.07604166666666666,32,0.145133125,0.008607902492828416,1.1814935279659091e-05,32.364,0.037735924528225044,-3.340278683886305e-05,88.361,1.665579678870593,5.150000000000006,0.0026067715404653716
S095,9169.0,9198.984375,W,-0.2104427083333333,20.148208886013318,-45.22,100.38,145.6,-0.72,26.928813000728944,625.0,641.8131510416666,1.1360262125301315,0.9405759723287759,1.4092699055421096,64.62617245757964,0.6304100383952047,68.97100840208152,0.059375,39,0.15359725833333335,0.0012549121383310304,1.3932844491331537e-06,32.234,0.03903844259188704,-6.659724028788116e-05,93.44666666666667,1.8053906933280568,5.700000000000003,0.003123959180761498
S095,9199.0,9228.984375,W,-0.16464583333333377,47.965352688377045,-294.26,363.82,658.0799999999999,4.275,63.89303147895849,718.75,727.8645833333334,5.678776505918037,3.5689924696283524,7.861937744867143,64.89985751982441,2.9838373905355646,92.41753080449618,0.034375,14,0.14697971666666662,0.0034814242875182864,3.843078299446082e-07,32.17066666666666,0.01730767331433075,1.6250004408096896e-05,93.31066666666668,1.4650550236159114,4.980000000000004,-0.0026054173734313592
S095,9229.0,9258.984375,W,0.21392708333333324,18.396966600471117,-44.81,45.08,89.89,3.135,61.56101539142767,750.0,762.2965494791666,0.1752849862050053,0.5202121295416153,0.3467342056604742,64.78763621119566,0.24304148980873827,66.06814663663572,0.019791666666666666,16,0.147630925,0.0009713076852238898,3.355398045626626e-07,32.18966666666667,0.018162843634434427,9.270835848208638e-06,86.50399999999999,2.0984384670511553,7.320000000000007,-0.003780695470023728
S095,9259.0,9288.984375,W,-0.06963020833333332,23.376359900698912,-63.97,83.66,147.63,2.4450000000000003,52.18983252230837,812.5,784.5052083333334,0.37336303592779807,0.5337522768621746,2.512935285676891,64.65797087559294,0.38450476933535377,69.82836100038436,0.075,54,0.14965878333333335,0.0021302659113489994,2.654490737437816e-06,32.18033333333333,0.021830152440044912,-6.701390706758422e-06,79.75066666666667,1.5106288609567726,4.420000000000002,-0.00259798681586014
S095,9289.0,9318.984375,W,0.09421874999999996,20.945079203172007,-73.13,58.31,131.44,2.475,60.9038866155527,859.375,837.8580729166666,0.392856128245443,0.540679188035752,1.1978600530100425,64.49196220613342,0.3996591914705109,69.33974329343886,0.05,36,0.1530101666666667,0.0013525143889150427,1.86772793720919e-06,32.16866666666666,0.012578641509410207,-3.819445480536184e-06,79.282,0.3781128579317728,1.3700000000000045,0.0004500695665336253
S095,9319.0,9348.984375,W,-0.30196875000000006,20.935779481026973,-48.1,53.94,102.03999999999999,2.865,64.68218498488417,796.875,784.8225911458334,0.23702437755546485,0.29341736485763753,0.4401593283971158,64.53379289679994,0.26807838332198464,68.11754546370561,0.03125,24,0.15425909999999998,0.001042439849583657,2.7743887734344267e-07,32.167666666666655,0.017065234314894314,1.3437503645157157e-05,78.14499999999998,0.5247967860673947,1.5699999999999932,-6.684029590936775e-05
S095,9349.0,9378.984375,W,0.08077083333333326,29.470933155780504,-143.52,147.72,291.24,1.705,54.8998961854365,781.25,741.0074869791666,1.2020810766876564,1.4566418762192563,2.639861822654423,64.73174906453757,1.0570381792560273,73.55949972641196,0.04583333333333333,22,0.15354390833333334,0.0015909858631041416,8.992825790154581e-07,32.214,0.02318045153428465,2.9652785821610437e-05,78.31366666666666,0.6702958716533726,2.4200000000000017,0.0004885070769604699
S095,9379.0,9408.984375,W,-0.09115104166666657,23.050185926087156,-76.39,108.22,184.61,3.41,45.92163077104131,734.375,724.4303385416666,0.49895724599742347,0.30273636312071195,0.5068016113469735,64.67474241677515,0.49115678805293694,66.75327707311455,0.36875,229,0.15487830833333333,0.0024053564697560335,-1.2230335348940836e-06,32.282000000000004,0.023999999999999373,3.763889909909294e-05,82.93533333333333,1.1015677716579924,3.5999999999999943,0.0016692365639205079
S095,9409.0,9438.984375,W,0.15247916666666658,28.09239662664495,-87.49,89.61,177.1,0.87,67.0355129985886,765.625,786.0026041666666,0.3836445747332057,0.5488466442357909,0.5405396930126614,64.52142719849994,0.3979308172755652,66.4529909033446,0.14791666666666667,116,0.15748285,0.0024125770096517112,3.3902153293769883e-06,32.33866666666667,0.01820866704499588,2.4236117685578316e-05,82.463,1.0415890104386976,3.0600000000000023,-0.0018337157752050155
S095,9439.0,9468.984375,W,0.22870833333333335,21.585076731349922,-56.36,51.24,107.6,2.7350000000000003,49.81311136782875,765.625,759.6272786458334,0.3673998351780916,0.27480856657660596,0.377754639558978,64.47425099942492,0.3624565212795575,66.34003316248794,0.14895833333333333,103,0.16192293333333332,0.0013491702001189097,8.353630738289608e-07,32.427,0.042751218306227315,7.225696404540104e-05,80.30033333333334,0.5888773688600685,1.8900000000000006,-0.0010208683324838166
S095,9469.0,9498.984375,W,-0.4881875000000001,20.58309681829997,-82.53,46.23,128.76,2.805,55.937681760202594,734.375,751.3509114583334,0.49986868935473666,0.3335350951882308,0.9916228981937752,64.62044094834647,0.4848401536566459,67.07458535093602,0.33645833333333336,203,0.163427925,0.0011154736524790676,1.8431059687244857e-07,32.59066666666667,0.046542692468552416,7.756946548650924e-05,79.94333333333334,0.5800134098066655,1.7000000000000028,0.0007174307501711001
S095,9499.0,9528.984375,W,0.10454687500000025,24.972877550014356,-148.87,134.24,283.11,2.91,118.37558614336642,750.0,778.857421875,1.076208542239323,1.060680120351246,2.1684197635221216,64.72157919428966,0.786274928989485,71.30918594402827,0.0375,21,0.165733725,0.0016228457873054317,2.138614512427975e-06,32.71366666666666,0.03772561758569776,6.253473918585766e-05,78.27399999999999,0.5343257433438895,1.9200000000000017,-0.0009206946941988639
S095,9529.0,9558.984375,W,0.30014583333333306,32.64992608751817,-222.66,122.91,345.57,3.71,41.91647270946488,828.125,814.1520182291666,2.346849801980424,2.431186401267565,4.625307797565717,64.70852563658855,1.9836418373695568,89.14594774862175,0.028125,17,0.16537079166666666,0.0015757570450201212,1.356856487862541e-06,32.755333333333326,0.014544949486183227,1.2083336611150057e-05,75.722,1.0167084144433938,3.0900000000000034,-0.00153097263752513
S095,9559.0,9588.984375,W,-0.045197916666666685,20.122906308338322,-62.56,59.11,121.67,4.15,39.16297621283396,781.25,778.8004557291666,0.4740487551109297,0.5630051743890894,0.8266292834289275,64.74882180274771,0.44776313234751025,66.01514977639603,0.023958333333333335,20,0.16637422500000004,0.0010031660502504082,4.4006587458384293e-07,32.76,0.017701224063136567,1.9236116329242314e-05,74.50466666666668,0.2655401204254358,0.9299999999999926,-0.00016486115583256114
S095,9589.0,9618.984375,W,-0.13415104166666666,21.224741866512844,-59.4,53.5,112.9,2.08,49.91581240067885,812.5,816.6178385416666,0.6137096544218248,0.9375555539095625,1.8892028627432318,64.76095153278253,0.45229772855976613,66.17401302626281,0.07395833333333333,54,0.16744172499999996,0.0008900031176209472,2.7215697486897195e-07,32.83,0.027568097504179597,4.270834491871273e-05,75.221,0.3211266624454175,1.1399999999999864,6.677085144608605e-05
S095,9619.0,9648.984375,W,0.1565833333333333,17.85821753520553,-37.79,31.28,69.07,4.145,48.551557785623935,812.5,817.9524739583334,0.4416654382844553,0.499321371059984,0.4189468857212756,64.81132345443956,0.4361980635886892,65.33758489567853,0.08958333333333333,71,0.16918144166666665,0.001091386196509083,1.1843690278778868e-06,32.88466666666666,0.011469767022724248,-7.361113107942235e-06,75.07233333333333,0.27450177089086764,1.0500000000000114,-0.0003933681622634988
S095,9649.0,9678.984375,W,-0.07675000000000008,30.308035167055944,-103.86,143.7,247.56,2.4050000000000002,40.91526165173041,781.25,778.6376953125,11.779882168974805,11.017182760226056,9.699725932196344,64.56004691569495,2.0684456104200972,86.97700845625813,0.07291666666666667,37,0.1677508333333333,0.005890302745945146,-7.691587589948895e-06,32.89399999999999,0.017435595774162486,2.2777783956646564e-05,74.77999999999999,0.5719615371683638,1.5,0.0009828474888366626
S095,9679.0,9708.984375,W,-0.1201614583333335,29.51748656913979,-124.34,278.25,402.59000000000003,1.71,74.34582945858882,812.5,763.8590494791666,5.773412386240674,3.5730709393321596,6.39486072612979,64.42862156756973,2.5463646445252235,101.57263410978372,0.023958333333333335,7,0.16899989999999995,0.0023048227097400217,2.4821708122208182e-06,32.943333333333335,0.019550504398154447,-2.083333898474e-05,76.16799999999999,0.49203251925050606,1.6500000000000057,0.0008215974450947923
S095,9709.0,9738.984375,W,-0.0249739583333334,18.85827897048107,-42.61,32.84,75.45,4.835,46.475859359786185,734.375,734.3180338541666,0.49899965034222893,0.1359125535858341,0.38220934626850767,64.40689476384956,0.430395413241425,65.76473218982953,0.3885416666666667,172,0.17204166666666662,0.0013330990294131205,1.3449343926145741e-06,32.942,0.02039607805437182,2.7500007459855224e-05,77.95533333333333,0.6258739667235121,1.9399999999999977,0.0010836114050595197
S095,9739.0,9768.984375,W,0.018015625000000077,25.131795945942777,-91.61,98.93,190.54000000000002,2.71,47.930131623631056,750.0,748.5595703125,1.3973557462569157,2.2728753719896795,2.6483286707400744,64.53209798041308,1.1147669022553615,77.54353615872827,0.058333333333333334,32,0.17408055833333336,0.0014225050251571079,1.4313716990483136e-06,32.96900000000001,0.014224392195567348,-4.756945734849193e-06,79.57333333333332,0.2580482297728271,0.9500000000000028,0.0004372917852896576
S095,9769.0,9798.984375,W,0.12192187500000005,18.424997495594038,-53.57,48.22,101.78999999999999,3.06,53.29785120363997,843.75,832.5520833333334,0.1428261375083551,0.4804331089987681,0.5282965286865154,64.43805810531148,0.20716567404124664,65.56675987114203,0.259375,146,0.17627961666666667,0.0013236297391600494,1.6837890852292494e-06,32.956,0.017243356208503067,-1.8125004916721212e-05,79.23233333333333,1.1997768774049424,3.780000000000001,-0.002073368617992788
S095,9799.0,9828.984375,W,0.042130208333333356,21.657124359302546,-125.25,97.83,223.07999999999998,3.42,82.89041272854388,781.25,767.431640625,0.49717518011483863,1.230715390845458,1.9789473562702191,64.5185622737254,0.6071769083916887,70.39176088151227,0.0375,21,0.17615151666666667,0.0015062855859327945,-5.696746337008039e-08,32.922,0.019043809142782468,-2.7500007459856952e-05,75.39399999999999,0.43968625177505755,1.6499999999999915,-0.0006802779623149835
S095,9829.0,9858.984375,W,0.08021354166666672,17.632087050502083,-57.94,81.58,139.51999999999998,2.33,74.0407632118967,812.5,808.6507161458334,0.4223556932222203,0.4371712554562825,1.3174011499655507,64.60528072909754,0.3068554184475815,66.12866246946176,0.05520833333333333,33,0.17699484166666662,0.0013019522648432867,9.229219083447044e-07,32.85133333333333,0.031062660685923858,-5.083334712275956e-05,75.88933333333333,0.8962028540210943,2.719999999999999,0.001545903197130858
S095,9859.0,9888.984375,W,-0.11772916666666673,15.840714631974446,-44.33,31.53,75.86,1.17,69.65527420877905,765.625,778.0517578125,0.19324531042175383,0.2263462809256845,0.3713713325859532,64.6900077885292,0.2159683310860731,65.64297372910524,0.030208333333333334,27,0.17892677499999998,0.001361348641742815,1.6800640408159877e-06,32.784,0.021385353243126588,-3.173611972008372e-05,79.02666666666667,0.5346795509669534,1.8300000000000125,0.00034937509477406
S095,9889.0,9918.984375,W,0.08210416666666658,18.725753337916277,-57.79,42.76,100.55,2.3200000000000003,51.64650133856823,828.125,822.705078125,0.3056115794599413,0.39607311816198226,0.5368121810357263,64.65383390738715,0.32674313458123905,66.6783323126786,0.03958333333333333,30,0.18067695833333333,0.0010624112464564784,1.4639565603180813e-07,32.768,0.014922019523733164,6.8750018649628615e-06,76.75,0.9038141401859127,3.0,-0.0015875698751003353
S095,9919.0,9948.984375,W,-0.022385416666666734,32.02001015864591,-165.05,165.07,330.12,0.46499999999999997,80.68886643144171,765.625,714.6402994791666,1.4633485192833895,2.784851756477453,2.242323904581039,64.66793950458388,1.6916757662578943,85.19976525789258,0.04791666666666667,25,0.17799826666666665,0.0012256149254784552,-2.4898270642976924e-07,32.891666666666666,0.05304610154279843,8.843752399021411e-05,75.92633333333333,1.5871956051126432,5.459999999999994,0.002279340896088568
S095,9949.0,9978.984375,W,-0.16297916666666673,27.107261353809474,-110.22,134.33,244.55,0.84,31.061169942740495,703.125,704.8177083333334,15.64847888751669,16.971645957097255,12.93299501376389,64.46931596185009,6.606184557756588,146.28738838327794,0.026041666666666668,9,0.158977175,0.01080065126173919,-1.0496028671882779e-05,32.94466666666666,0.0206128331116543,-2.2222228250404727e-06,84.51433333333334,2.391853790589123,7.930000000000007,0.0043087858910552
S095,9979.0,10008.984375,W,0.2443854166666667,128.76191593983557,-493.99,523.82,1017.8100000000001,-5.145,0.0,734.375,734.375,29.15733176509336,11.399079319471253,12.101568451418807,63.534630920506984,6.3867250706673735,112.75194011634566,0.09375,45,0.15633003333333334,0.008760695813245787,4.2045553940308686e-06,32.937666666666665,0.02186066990942713,-1.6840282345998806e-05,90.28733333333334,1.1765654347388506,3.6599999999999966,0.0004039584429140729
S095,10009.0,10038.984375,W,0.04758854166666661,53.86913443869738,-233.31,461.86,695.1700000000001,0.845,87.17007273334025,578.125,635.3841145833334,1.7444327989150388,2.4458714860738056,1.5773017654764103,62.15757885812489,0.725987026503401,69.05794668247819,0.04479166666666667,22,0.16286234166666666,0.0035024474430885083,1.7637480912945165e-06,32.814,0.047651512742688605,-8.131946650376055e-05,84.25666666666666,3.3505744117820875,10.049999999999997,-0.005969307174833759
S095,10039.0,10068.984375,W,-0.27172916666666663,28.23094759688941,-97.76,117.18,214.94,3.145,49.83537846135564,703.125,713.6637369791666,0.4400471486733616,0.34031745800387947,0.5669490335093819,62.02657406069288,0.2640744087955229,64.38167441127949,0.15104166666666666,89,0.164431375,0.0009792530747334848,2.9884448210841953e-07,32.669333333333334,0.03501745596445014,-5.618057079551024e-05,78.033,0.3373143934076944,0.9500000000000028,-9.295141410357593e-05
S095,10069.0,10098.984375,W,0.19659374999999993,32.76929729916091,-92.74,173.84,266.58,2.9450000000000003,51.418712127038106,796.875,769.6695963541666,0.6755583788717959,0.45753244420477984,0.4860510875640772,62.092759398321284,0.28986543231304174,63.671029518926424,0.19166666666666668,92,0.16597925,0.001164505018237361,3.702891629473623e-07,32.58466666666667,0.026799668322990022,-3.958334407100353e-05,80.41166666666665,1.9058805197481694,5.679999999999993,0.003312118954025323
S095,10099.0,10128.984375,W,0.08595312499999995,28.726136346610428,-72.6,47.14,119.74,5.81,61.33392533331039,796.875,798.4130859375,0.49190936806376123,0.08507936450096985,0.2684510611307436,62.40905751163294,0.28165968181333295,63.28506932918696,0.0010416666666666667,1,0.16738834166666666,0.0010842125137308478,9.590851125990465e-07,32.51566666666667,0.02231342396157162,-2.8645841104013645e-05,80.73766666666667,1.9881661287617685,5.849999999999994,-0.0035682301346110393
S095,10129.0,10158.984375,W,-0.4297812500000002,32.80073561252829,-105.84,78.41,184.25,4.195,50.911759475636906,812.5,810.8805338541666,0.535581808189831,0.2699987139887069,0.5175899009404604,62.21778006618107,0.4574953220026205,63.28506932918696,0.004166666666666667,3,0.16840243333333332,0.001441231676572355,4.250287611297637e-07,32.48033333333334,0.010482790129012341,-7.1875019497356e-06,76.36266666666667,0.918135550389423,2.2900000000000063,-0.0015619448681491064
S095,10159.0,10188.984375,W,0.24847916666666645,88.58185209513138,-619.11,549.95,1169.06,9.385000000000002,52.99170170304077,765.625,757.8857421875,1.9176602383974475,2.890537536214309,1.1489876091767337,62.56944364435102,0.8348734652916416,71.35825109964509,0.023958333333333335,11,0.17203102499999998,0.0015406143658862142,1.774320142773466e-06,32.468,0.01399999999999972,-9.930558249391636e-06,77.13433333333333,1.1088903863272008,2.839999999999989,0.0019120491297876325
S095,10189.0,10218.984375,W,-0.19125000000000003,49.971885895971546,-116.21,83.39,199.6,8.325,29.462742088437132,843.75,847.4446614583334,0.47889031886226313,0.0,0.20219874281810518,62.551838291070574,0.2773110307153592,62.75348595894893,0.0,0,0.17537225,0.001013844040027857,8.389885088402016e-07,32.45066666666666,0.01209223809814432,-3.4027787008416006e-06,77.71766666666667,0.3941546509796489,1.480000000000004,-0.000655382122228223
S095,10219.0,10248.984375,W,-0.012984374999999914,55.5654069636984,-139.59,158.47,298.06,6.119999999999999,54.009380373551416,812.5,801.46484375,0.536821276900733,0.5142236850475568,0.3542830691065487,62.253104833887484,0.24979366354702082,64.29618962271404,0.025,14,0.1759914,0.0010511487715827896,-7.383543669581097e-07,32.449333333333335,0.014126413400277845,-2.291667288320255e-06,74.12066666666666,1.2378447219080249,3.569999999999993,-0.0020898616780223728
S095,10249.0,10278.984375,W,0.44881249999999984,52.252811410071615,-116.09,93.01,209.10000000000002,9.2,80.11928048684035,828.125,797.2574869791666,0.4107443700161939,0.5028035550098622,0.10703853634971328,62.246175201206114,0.2523347394881001,63.03967004989794,0.017708333333333333,15,0.17711227499999999,0.001180589365264235,1.4658669341001933e-06,32.46400000000001,0.015620499351812808,1.756944921046208e-05,74.64366666666666,0.8607573538589275,2.680000000000007,0.0014730906773791994
S095,10279.0,10308.984375,W,0.03817708333333343,55.16293611231314,-122.56,113.58,236.14,7.305,71.4984479252582,796.875,794.1975911458334,0.4283251762355585,0.48882920642649363,0.2066573208572319,62.12547464561528,0.32974746450381603,63.03967004989794,0.06770833333333333,53,0.1796098833333333,0.0011859908317755057,7.222172098028472e-07,32.495333333333335,0.010241527663824745,8.055557740765002e-06,76.529,0.7285709757234812,1.8999999999999915,0.0012398267252134115
S095,10309.0,10338.984375,W,-0.4517760416666666,50.50624707773214,-106.82,88.71,195.52999999999997,6.085,72.06546040012714,828.125,812.109375,0.3210226714043037,0.49352469367184537,0.11180339887498948,62.186316055471906,0.3363586116373292,63.03967004989794,0.071875,66,0.18158413333333331,0.0009745682371639622,8.505679390646486e-07,32.518,0.01939071942966478,5.902779379009075e-06,74.60866666666668,0.9325689727247451,3.2099999999999937,-0.0010857641834212729
S095,10339.0,10368.984375,W,0.32661458333333354,54.25020059004194,-140.27,106.29,246.56,9.455,43.9887653792383,750.0,744.6695963541666,0.41327263499212397,0.5730407062693424,0.4645366194750779,62.23186551575749,0.326148374220706,63.03967004989794,0.075,57,0.18306792500000002,0.0011236166469819691,7.514201257107548e-07,32.544,0.012806248474864593,1.0902780735344833e-05,75.80233333333334,0.4155613338873361,1.8999999999999915,0.0006437154523967695
S095,10369.0,10398.984375,W,-0.26859895833333347,61.442112399477274,-166.97,388.08,555.05,5.154999999999999,114.11913825676704,765.625,759.0250651041666,0.5561524571154527,0.5552151735038308,0.5077481262616557,62.309218119266504,0.40937435883332984,64.8459713474939,0.19583333333333333,120,0.18401800000000001,0.000954801026392412,1.7791671492966518e-07,32.54666666666667,0.012736648783027738,-3.1250008477101117e-06,78.95266666666666,0.9834088106626284,3.1400000000000006,0.001531389304304821
S095,10399.0,10428.984375,W,-0.1402239583333333,47.37470611058633,-126.34,108.3,234.64,7.3100000000000005,79.96403037842265,765.625,763.5579427083334,0.3146988612370386,0.15612494995995993,0.3278702714955346,62.34995549182784,0.257649957151966,63.03967004989794,0.090625,74,0.18461580000000002,0.0010580642986132778,9.357307225832068e-07,32.55,0.015491933384829645,5.694445989161634e-06,79.32400000000001,0.46431024111040264,1.3100000000000023,0.000591180715923589
S095,10429.0,10458.984375,W,0.2277812500000002,45.54811482988418,-129.3,165.17,294.47,5.005,64.1115899914722,734.375,704.5654296875,1.2349084641909924,0.8280817598774088,1.0501240006145307,62.31479014753301,0.4404681625899235,65.49809157525127,0.052083333333333336,26,0.18313207500000003,0.001924579569509921,5.021730962926095e-07,32.577333333333335,0.024485823562943574,3.465278717794923e-05,79.08833333333332,0.2718833491693737,1.2000000000000028,0.00022211811580895142
S095,10459.0,10488.984375,W,0.05252083333333356,48.52530523581209,-172.07,269.25,441.32,5.645,28.72391549433179,796.875,787.2639973958334,0.4892496646651891,0.07198059875565237,0.42389050440204745,62.34176812229889,0.3092152198437341,63.0,0.2635416666666667,104,0.18574734166666665,0.0012807888747163722,1.2904554281834433e-06,32.61333333333334,0.015563490039905354,-2.9861119211453166e-06,79.30199999999999,0.8985410396860006,2.4299999999999926,-0.0015295143037961966
S095,10489.0,10518.984375,W,-0.03878645833333323,66.01348667788324,-259.24,331.26,590.5,4.805,31.670767158914604,796.875,781.5673828125,8.70196238244889,4.871924666556044,11.817993606076453,62.401699697211455,2.0012391742051068,75.0066663703967,0.07916666666666666,41,0.19447859166666667,0.01507341256788247,7.363208377606437e-06,32.61800000000001,0.019043809142780675,5.5555570625965925e-06,78.031,0.07790378681424812,0.269999999999996,-7.88194658255701e-06
S095,10519.0,10548.984375,W,0.16360416666666686,49.99013012303845,-195.05,255.63,450.68,5.57,70.29987316017653,640.625,681.9417317708334,1.052212760190796,1.1936881892083693,3.2282349126173684,62.128605058508555,0.6558837426453888,69.29646455628166,0.065625,35,0.19511899166666666,0.0019095591964981265,1.3532783618919206e-06,32.622,0.013266499161422102,1.944444971908045e-06,81.39266666666666,2.2610615992395147,6.920000000000002,0.0040625705464872345
S095,10549.0,10578.984375,W,-0.14016145833333343,45.20359694764545,-101.58,90.88,192.45999999999998,9.15,39.389358371692055,734.375,739.5589192708334,0.13188915142607022,0.4527009510059225,0.5175689366322777,62.239578492445936,0.32830740066087183,62.63385665915839,0.275,166,0.19690172500000003,0.0010054354028852333,9.260009022354819e-07,32.610666666666674,0.013148721948877168,-3.95833440710098e-06,85.91499999999999,0.35249349875801456,1.1800000000000068,0.0004935765227800878
S095,10579.0,10608.984375,W,-0.05396354166666673,46.95507508034413,-114.9,131.89,246.79,5.32,67.12585647497555,750.0,750.8219401041666,0.21407707269942652,0.511193074459152,0.37484805949655564,61.98268370594324,0.3276236799552231,63.35613624582863,0.05,29,0.19804386666666668,0.0009667122799583161,2.585044104015833e-07,32.58466666666667,0.011469767022724248,4.305556723513288e-06,84.037,1.6220401762389638,4.549999999999997,-0.0028497577174906984
S095,10609.0,10638.984375,W,0.14795833333333333,41.77663428753084,-82.76,82.98,165.74,6.84,68.24263810977843,765.625,773.8606770833334,0.03225804701500421,0.48274816408822896,0.12827311899051788,61.90852959554868,0.28614678705418595,62.77738446287803,0.37083333333333335,216,0.19889750833333336,0.0010214766761559196,6.030963007531144e-07,32.58933333333334,0.01209223809814457,-3.1250008477101117e-06,79.98366666666666,0.7391458283421185,2.1500000000000057,-0.0012710072892272385
S095,10639.0,10668.984375,W,0.23094791666666664,43.88732888195772,-94.75,122.51,217.26,7.325,67.35891265384045,796.875,787.5569661458334,0.43481193052922956,0.3702461995265973,0.5049999570269509,62.282792028697486,0.4116334656179471,63.35613624582863,0.009375,8,0.19954850833333335,0.0010700185979367635,-2.387324866353313e-07,32.59533333333334,0.01543444920371985,3.3333342375575018e-06,77.93666666666667,0.7741289011240667,2.489999999999995,-0.0013352086955318713
S095,10669.0,10698.984375,W,-0.4269947916666667,83.47777530064997,-386.71,424.8,811.51,5.305,33.38758405056518,734.375,731.2581380208334,6.022521389658063,3.44089967618895,9.310357637147847,62.178948080076545,1.2167575717774377,72.18725649309579,0.04479166666666667,19,0.20736179166666668,0.023459927120835875,-7.176304247044336e-06,32.626999999999995,0.024919871588753136,3.572917635882464e-05,78.44166666666666,0.9051374972283983,2.569999999999993,0.001585451818970219
S095,10699.0,10728.984375,W,0.14624479166666676,51.489002487914775,-108.86,114.96,223.82,9.114999999999998,64.29377988604456,765.625,771.3785807291666,0.4780228649081548,0.16409473889596013,0.4724667463313041,62.05002887084137,0.3581789046700603,63.474404290233394,0.2520833333333333,152,0.19926035,0.0009163701094535976,4.834736554561793e-07,32.687333333333335,0.01824524291120565,9.166669153285731e-06,80.02933333333334,0.349064782271461,1.0,0.0005564584842823575
S095,10729.0,10758.984375,W,0.16151041666666668,53.696044959392886,-290.13,216.15,506.28,10.8,61.55298509129285,703.125,690.3727213541666,1.2861171106171563,1.61646765044357,1.1222763132419256,62.29346135874959,0.8314677459993753,70.8660708661063,0.042708333333333334,24,0.19698705000000002,0.0017492316448944052,-2.0773421433762284e-06,32.70466666666666,0.018208667044996667,1.2708336780689885e-05,80.53266666666667,0.3989480612254617,1.4599999999999937,0.0004845140203217275
S095,10759.0,10788.984375,W,-0.24456770833333333,43.65955200374015,-86.73,77.27,164.0,8.235,41.0539325064359,734.375,734.5621744791666,0.3254204011736203,0.38527024245615205,0.7842850767400985,62.28836874178236,0.4762644444871771,63.655321851358195,0.00625,5,0.19738205833333336,0.0010510523083703024,1.0790959958485163e-06,32.74733333333333,0.016110727964794184,1.75000047471821e-05,82.875,0.5847834356979226,2.3900000000000006,0.0009748266533275416
S095,10789.0,10818.984375,W,0.24458854166666655,45.65853326982302,-96.89,143.6,240.49,7.545,60.955742064526106,781.25,771.5738932291666,0.5071708018234313,0.6194536893617544,0.44075672774848884,62.053939097531845,0.32802562878583835,63.76519426771944,0.17291666666666666,120,0.19799040833333334,0.0012878166050582938,5.5461603586589076e-08,32.772,0.01194431524477865,4.8611124297777e-07,82.82866666666668,1.1542955523704583,3.700000000000003,-0.002035417218808923
S095,10819.0,10848.984375,W,-0.3728281250000001,44.165543429565,-95.05,102.93,197.98000000000002,6.465,61.461781550511915,828.125,805.2083333333334,0.7180673086293667,0.4045302810221861,0.8033614005729647,62.074601339768456,0.3029606830634266,63.89053137985315,0.17916666666666667,82,0.19929237500000005,0.0011027308757693317,-2.8112203806478696e-08,32.769999999999996,0.015491933384829643,6.250001695421999e-06,77.972,0.9803856384097024,3.799999999999997,-0.0016555560046538633
S095,10849.0,10878.984375,W,0.21167187500000034,42.07125508396737,-122.87,138.89,261.76,6.6,67.81418375873334,781.25,796.1751302083334,2.963273274314046,1.1384606558553332,7.799303020409367,62.02803690297266,0.5280984410713223,66.9925368977769,0.06979166666666667,39,0.20585687500000002,0.01651540918685865,1.6610850209106512e-05,32.791333333333334,0.019275776393066914,2.7361118533288404e-05,75.98499999999999,0.23548177565719755,1.1099999999999994,-0.00012392364472754833
S095,10879.0,10908.984375,W,-0.1683020833333334,54.70238474322894,-146.04,218.86,364.9,5.215,37.381953299655976,828.125,834.2529296875,0.7909646009778187,0.7912252058604357,2.9725157038062893,62.49503015309392,0.4273926733272645,65.92419889539804,0.14375,96,0.22047981666666666,0.0015595440946172573,-9.535137135182608e-07,32.803333333333335,0.016599866130651477,-1.4166670509621515e-05,74.34066666666665,0.396147559488747,1.2199999999999989,-0.0006490279538378804
S095,10909.0,10938.984375,W,0.2044687500000001,43.89233634024593,-97.24,82.97,180.20999999999998,6.73,62.22214713924661,828.125,824.4791666666666,0.5092876544061868,0.4772959406181406,0.6715446539301927,62.51598136045891,0.3384886094884348,63.2771680782255,0.04375,33,0.22066127499999996,0.0009778556383101785,-1.4316735654496482e-07,32.818333333333335,0.012671051872497752,7.395835339581608e-06,72.98466666666667,0.5325081115709778,1.6500000000000057,-0.00016291671086065255
S095,10939.0,10968.984375,W,-0.23165104166666672,44.890906259799934,-101.75,83.3,185.05,8.085,60.289683574971626,781.25,785.7096354166666,0.40385377708260806,0.09636964965693294,0.23310070248714398,62.54836903726627,0.3345854817770521,63.2771680782255,0.004166666666666667,4,0.222177125,0.0010575795286289335,9.132131383499159e-07,32.836333333333336,0.014255603186895033,4.340278955155301e-06,74.51666666666667,0.43192077462835266,1.4000000000000057,0.0007182640837304928
S095,10969.0,10998.984375,W,0.030130208333333228,48.200827141434644,-108.38,125.0,233.38,7.220000000000001,62.097772544872505,812.5,816.5364583333334,0.48933836956706706,0.2906809981893095,0.49137416263814004,62.4619046365258,0.4270177719441684,64.10148204214939,0.04895833333333333,42,0.22404524166666664,0.0011877219651910153,9.424023823791118e-07,32.865,0.024186773244893725,3.503473172599825e-05,75.51533333333333,0.47936578471513286,1.3499999999999943,-0.0006622224018615455
S095,10999.0,11028.984375,W,-0.29079687500000023,47.73457367569556,-119.88,126.53,246.41,7.460000000000001,65.38830411583449,796.875,806.73828125,0.23090251670829018,0.09636964965693297,0.4635955024917256,62.65672056540641,0.18806378858890666,63.2771680782255,0.005208333333333333,4,0.22550772499999996,0.000996326979146408,8.759618261615227e-07,32.89199999999999,0.014922019523732654,7.708335424352127e-06,75.19500000000001,0.20763349119702781,0.6599999999999966,-0.00010204863879357593
S095,11029.0,11058.984375,W,0.32792187499999964,56.79165871396503,-261.8,271.25,533.05,7.285,85.3286906503055,828.125,814.0543619791666,1.5030260997724632,0.9512595588291815,6.194251016847979,62.75483620060539,0.9965106297414286,82.90958931269651,0.017708333333333333,8,0.23312871666666665,0.010403864883769025,4.682119325661247e-08,32.931999999999995,0.018867962264115152,2.493056231840592e-05,74.48066666666666,0.3103324382371621,0.9500000000000028,0.0002332639521657874
S095,11059.0,11088.984375,W,0.24600000000000014,49.675895625418775,-102.76,108.01,210.77,9.725,55.77763562049245,765.625,769.9625651041666,0.1878209059405617,0.39999999999999997,0.3471048412703766,62.63688108979814,0.25674697496655136,63.631753079732135,0.030208333333333334,21,0.23203982500000003,0.0009922009092794616,8.820777132372228e-07,32.95333333333333,0.014681810363696595,1.0208336102520586e-05,73.83133333333333,0.23949576660605543,0.980000000000004,0.00016534726707553726
S095,11089.0,11118.984375,W,-0.06818749999999968,50.346797539108785,-104.86,89.34,194.2,8.879999999999999,62.02120170274573,828.125,822.75390625,0.4921210823793492,0.38436088501635485,0.5183733572435991,62.52795428314412,0.3949364907229914,63.631753079732135,0.19583333333333333,135,0.23408942499999996,0.001084392961234537,1.0978017300894486e-06,32.96600000000001,0.014966629547095257,4.166667796947557e-06,75.78833333333334,0.4415282802066268,1.7700000000000102,0.0003985070525464032
S095,11119.0,11148.984375,W,-0.4115416666666666,51.289702588156985,-101.35,90.45,191.8,8.524999999999999,47.03364898770373,812.5,802.4088541666666,0.45292260805670637,0.32349410736518824,0.49480701730573706,62.407903791935,0.4010435927069125,63.52952069707436,0.284375,154,0.23624577499999996,0.0010944348196101072,1.4058200428114311e-06,32.98966666666667,0.011100550536897706,1.1284725283400091e-05,75.971,0.2509893756051578,0.9699999999999989,-0.00022593756128948898
S095,11149.0,11178.984375,W,0.46046875000000015,46.796534616058274,-98.75,84.03,182.78,10.425,52.75353856644949,734.375,746.4680989583334,0.4714045207910316,0.31340840191176894,0.2840810446519717,62.401684809841136,0.4202474190791159,63.4428877022476,0.3333333333333333,187,0.2387112666666667,0.0010831816001432475,1.1260233089255914e-06,33.00966666666666,0.016428295373802096,1.6354171103019407e-05,75.36566666666667,0.7338196115001439,2.5,0.0012021878261143188
S095,11179.0,11208.984375,W,0.04805729166666707,46.53663915766229,-101.07,96.33,197.39999999999998,8.75,64.790185255183,750.0,772.2330729166666,0.49341914899730255,0.23891210320022624,0.4261817210709535,62.583321851911805,0.39884330258645084,64.19501538281614,0.014583333333333334,13,0.24060020833333337,0.0010587975010661263,9.30375903422277e-07,33.032333333333334,0.017259457954665155,6.423612853626365e-06,78.13133333333333,0.3797256319443758,1.7199999999999989,0.0006090973874504644
S095,11209.0,11238.984375,W,-0.24117187499999995,46.7359331658963,-102.87,82.92,185.79000000000002,9.55,38.62250073552233,812.5,818.2698567708334,0.39624978093229135,0.09090593428863096,0.6959206532037655,62.67386318742976,0.32177605567095807,63.4428877022476,0.004166666666666667,4,0.2423829,0.001015865217437828,1.0980797249565256e-06,33.03666666666666,0.015563490039904036,7.847224350917094e-06,78.38266666666667,0.9761998884563674,2.9200000000000017,-0.001643542112506
S095,11239.0,11268.984375,W,-0.7512499999999996,60.34337700471638,-287.77,284.04,571.81,6.68,77.6205224844454,843.75,811.7106119791666,1.6837870675619555,1.2344338945162496,7.828163187420716,62.64908379669943,1.0585010317102543,71.29516112612411,0.01875,10,0.24118748333333334,0.006991552576721105,-6.581305604737846e-06,33.077333333333335,0.017499206331210493,2.0347227741762843e-05,74.51899999999999,0.9791879288471649,3.0200000000000102,-0.001725451856947661
S095,11269.0,11298.984375,W,1.0069791666666668,53.188650601925715,-248.41,290.4,538.81,9.39,73.37226405071259,765.625,771.533203125,1.9756152346941334,0.9179536420151558,2.92330179067694,62.125381515219466,0.5189058248812074,66.19667665374146,0.06145833333333333,36,0.23211453333333337,0.001663419990728603,3.8753265720829036e-07,33.24033333333333,0.05907528153880455,0.00010329863913266247,74.106,0.7004312957028693,1.9300000000000068,0.0011979864360857305
S095,11299.0,11328.984375,W,-0.4743593750000004,45.84906991407168,-152.83,126.62,279.45000000000005,9.035,70.68943853668607,828.125,843.701171875,0.2364285039922217,0.14683805681959822,0.4145453814287271,61.98718437519963,0.19741640004541855,63.25345840347388,0.04375,28,0.23366241666666668,0.0010927228955178421,-1.4742625526970971e-08,33.349000000000004,0.02165640782770661,2.5729173646151644e-05,75.70166666666667,0.5660570250032734,1.5700000000000074,0.0008332988371578887
S095,11329.0,11358.984375,W,0.5850989583333335,39.51260168433872,-92.57,84.95,177.51999999999998,7.135,71.57687911267557,828.125,823.2340494791666,0.3721404281503004,0.40385377708260806,0.545052518812535,61.96478165829102,0.3848710264342266,63.25345840347388,0.19791666666666666,104,0.23454844999999996,0.0009234954777907718,-1.8570057120783786e-07,33.38799999999999,0.0119443152447794,1.0347225029087082e-05,73.77133333333333,1.1306037718356015,3.3600000000000136,-0.001984722760612728
S095,11359.0,11388.984375,W,-0.28816145833333345,52.48384643159437,-333.37,261.22,594.59,5.63,63.96754394215929,812.5,817.1549479166666,3.4980742469964814,1.6222970977178899,13.064739972749384,62.50114879081033,0.7282569342771729,69.0941386804988,0.12604166666666666,81,0.24463508333333336,0.013613340472114923,-7.769037263736242e-06,33.371,0.023572582944314628,-1.6979171272561114e-05,73.19733333333333,0.3788133518707529,1.75,0.0005642362641699931
S095,11389.0,11418.984375,W,0.03204166666666654,37.81377365208032,-84.54,61.56,146.10000000000002,7.05,32.99681551175141,843.75,853.2877604166666,0.317991676930737,0.19895287950640195,0.41830926225567716,62.51196119506062,0.27861122357518003,63.82789358893179,0.10208333333333333,85,0.24261775000000002,0.0010404702963083604,1.1837021440164277e-06,33.35800000000001,0.0172046505340831,-1.326389248694872e-05,73.70333333333332,0.256766214461501,0.8300000000000125,-0.00016319448871378417
S095,11419.0,11448.984375,W,-0.7204374999999998,39.99961385902486,-162.73,110.02,272.75,7.09,63.421988738880785,765.625,776.9124348958334,0.8027702686115539,1.6663381837755302,4.867697410644711,62.38119837363665,0.6026382018466862,71.37226352022192,0.08125,58,0.24417629166666666,0.0014219177155976922,6.304930095738438e-07,33.371,0.029022979401385367,4.184028912768115e-05,72.72966666666666,0.22729545138920448,0.980000000000004,-0.00029059035660545667
S095,11449.0,11478.984375,W,0.767796875,42.86918998037313,-94.37,66.47,160.84,9.715,58.907037803358,812.5,787.0930989583334,0.11625205344661899,0.395437027487732,0.4925838902043883,62.09662099595161,0.2647216496756568,63.474404290233394,0.184375,103,0.24495555833333332,0.0010458111349237772,4.222846197603696e-07,33.41599999999999,0.012806248474866257,-2.8472229945811135e-06,74.27433333333333,0.9026504799139524,2.700000000000003,0.0015167712447838656
S095,11479.0,11508.984375,W,0.11047395833333346,72.40867143148864,-498.45,354.05,852.5,6.15,46.04430842696069,671.875,700.0569661458334,0.7112074045046369,1.6434832905718537,1.194605478082153,62.161041738430626,0.7399988692018662,71.40728254176881,0.04583333333333333,22,0.24563871666666665,0.0032338759437743163,-1.0793019420849443e-06,33.426666666666655,0.028790430508919822,3.048611938100308e-05,77.76,1.4800112612184186,4.960000000000008,0.0026619451665432854
S095,11509.0,11538.984375,W,-0.1652604166666668,42.99944476791357,-110.47,97.54,208.01,7.05,71.26219035409983,734.375,764.6402994791666,1.2143666723566469,0.633668188616005,3.483841513718489,62.374851496748505,0.5625321548479798,75.49834435270749,0.021875,15,0.24606573333333337,0.002254012924147115,8.648491929386944e-07,33.45466666666667,0.011175369742825627,-4.2361122602294595e-06,81.56133333333334,0.6861133693170215,1.980000000000004,0.0012100003282335954
S095,11539.0,11568.984375,W,0.0036718749999999764,36.966019599179425,-87.12,63.73,150.85,7.855,91.47278735937479,750.0,741.3818359375,0.06451609403000842,0.03225804701500421,0.27725558555639995,62.33656425309553,0.061634295290074984,63.166446789415026,0.06770833333333333,17,0.2469409666666667,0.0009482561005457408,1.0441278874044783e-06,33.47333333333334,0.012736648783028787,8.819446836872214e-06,80.663,1.0846632349874,3.530000000000001,-0.0018687852291626584
S095,11569.0,11598.984375,W,-0.036843749999999946,37.76700236505742,-81.86,70.26,152.12,7.9,63.31647931006201,750.0,774.1617838541666,0.09126331714087296,0.11599041357658256,0.24358969087381344,62.338293773564146,0.06955382192259921,63.25345840347388,0.06458333333333334,30,0.2481147916666667,0.0009552666547081003,6.060546348889474e-07,33.495,0.01204159457879226,1.2118058842788616e-05,77.55633333333331,0.7943445236307861,2.1500000000000057,-0.0010387850040106874
S095,11599.0,11628.984375,W,0.07479687499999992,37.73758176899045,-81.7,66.59,148.29000000000002,7.245,53.92866850968237,781.25,788.9078776041666,0.07894706383956841,0.07902948640996106,0.3791208763559307,62.349487793492685,0.1006075996312687,63.796551630946325,0.007291666666666667,3,0.24977969166666672,0.0012755730594248907,1.3913465145796842e-06,33.51633333333333,0.018162843634433462,2.1006950142943946e-05,77.75900000000001,0.5139023902130312,1.3200000000000074,-0.0008291321693609388
S095,11629.0,11658.984375,W,0.02360416666666684,38.0978719376378,-82.4,94.51,176.91000000000003,7.645,61.9656844661985,765.625,773.7955729166666,0.05589199343873463,0.03225804701500421,0.4859472690157738,62.38394787477482,0.06712593172778612,63.25345840347388,0.0020833333333333333,2,0.25191467500000003,0.0009231869363108511,3.4554761977745984e-07,33.553666666666665,0.018345450541089346,1.885417178118836e-05,77.42099999999999,0.14631814651641922,0.4000000000000057,0.0001538542084022931
S095,11659.0,11688.984375,W,-0.15984895833333349,37.70369091719364,-86.96,61.63,148.59,7.56,65.06051392974125,828.125,815.1529947916666,0.2009498926971597,0.1823839052353274,0.7202061035545465,62.41866676865967,0.1815364693065573,64.85368146836385,0.03333333333333333,21,0.25411368333333334,0.0024319927802227384,1.3773957729480612e-06,33.577333333333335,0.014126413400279722,1.2569447854127038e-05,76.55799999999999,0.31337304712860464,1.2000000000000028,-0.000439514008114694
S095,11689.0,11718.984375,W,0.19067187499999996,53.87925148747584,-304.91,176.11,481.02000000000004,7.1850000000000005,85.88465443325532,843.75,818.1315104166666,0.903693712708509,1.0139516128809547,3.586069086486699,62.716825878032076,0.3774388929849862,67.23838189605696,0.109375,81,0.26731710000000003,0.0009582050876508624,6.772007045358073e-08,33.64366666666667,0.045349261907504164,7.677085415875768e-05,74.70733333333332,0.7054451707176758,2.6000000000000085,-0.0012178475525845168
S095,11719.0,11748.984375,W,-0.058546874999999804,40.485687096940126,-95.0,95.14,190.14,5.73,62.05525095950355,781.25,785.5387369791666,0.23632521950693283,0.39442595198239966,0.46480282557947805,62.694797488095084,0.2811309186351657,63.30876716537765,0.16979166666666667,128,0.2682028,0.0009396822388445867,6.117171798277867e-07,33.781333333333336,0.02348521993841207,3.0069452601305507e-05,73.824,0.4854935632940975,1.3300000000000125,0.0008517363421593809
S095,11749.0,11778.984375,W,0.03463020833333325,37.18617185819778,-80.2,89.8,170.0,7.1,53.36088221543533,750.0,755.8186848958334,0.2044401866819622,0.30682167447974656,0.8501199874462166,62.633086603798695,0.25125514466001464,63.39558344238185,0.09583333333333334,75,0.27006017499999996,0.0010058886590348834,7.619839306597051e-07,33.80066666666667,0.013399834161495011,2.2222228250385237e-06,76.11033333333334,1.0465227608078527,3.5,0.0018842019000113671
S095,11779.0,11808.984375,W,0.04008333333333309,41.14339926294037,-113.3,213.76,327.06,5.79,35.00619016130397,765.625,757.03125,0.48174014541901455,0.36930866343600566,2.1214735342674493,62.493987846201875,0.3250380676748621,65.03076195155643,0.08229166666666667,40,0.268715425,0.003663671702592224,-4.975731601489688e-06,33.844,0.04535783651513049,7.451390910207916e-05,78.423,0.27324165129057465,1.1099999999999994,0.0004144098346380853
S095,11809.0,11838.984375,W,-0.3261406249999998,41.393116139026965,-123.09,188.37,311.46000000000004,6.195,77.46958145899778,718.75,722.65625,0.2252289537275841,0.4226638714911518,0.23437268517375387,62.52251822364297,0.26482379217047913,63.25345840347388,0.18854166666666666,131,0.2644781416666667,0.0009919800174048603,7.255620457796327e-07,34.00233333333333,0.017641491496532713,4.618056808283955e-06,79.43733333333333,0.367540776271453,1.1200000000000045,0.0005674307094809869
S095,11839.0,11868.984375,W,0.10182291666666685,35.23329093062377,-74.03,59.57,133.6,7.869999999999999,53.35996439757042,812.5,815.1692708333334,0.26833584043859826,0.49607837082461076,0.4427647022936926,62.64221188296345,0.35231199702344307,63.8200595424354,0.40625,219,0.26589781666666673,0.0010650958797477226,7.762402279297559e-07,33.967000000000006,0.02115813476341111,-3.225695319470286e-05,79.04133333333333,0.5404426169559758,1.8500000000000085,-0.0009561808149362042
S095,11869.0,11898.984375,W,0.09620312499999996,37.30335258350323,-96.35,118.2,214.55,4.609999999999999,73.8397350298707,765.625,767.0654296875,0.20644719108850412,0.1404937659253566,0.47227723842098884,62.42488829002811,0.20152827140516377,64.64518543557594,0.021875,14,0.2656843750000001,0.0009450377952098112,5.572594827635354e-07,34.004333333333335,0.045510682506661605,7.767363218143077e-05,76.71199999999999,0.48644561189647306,1.769999999999996,-0.0008459030072436556
S095,11899.0,11928.984375,W,0.20327604166666677,31.611545944922838,-65.89,57.54,123.43,4.859999999999999,33.54071637499588,812.5,809.765625,0.03225804701500421,0.0,0.1821904480893551,62.42708508741539,0.026723683560767004,63.25345840347388,0.0010416666666666667,1,0.2670822083333333,0.0030444199499407433,-3.6368106653674748e-06,34.10866666666667,0.0185711843695793,1.583333762840123e-05,75.639,0.10533597043112539,0.39000000000000057,-5.274306986302857e-05
S095,11929.0,11958.984375,W,-0.1110312500000001,33.87710961418526,-94.69,141.88,236.57,4.109999999999999,44.580870676208804,812.5,818.1722005208334,0.20589985008223996,0.2270642193790607,1.4075302813991446,62.45761516178756,0.16911525274481676,64.76109943476871,0.029166666666666667,16,0.2652464583333334,0.002769794814590168,1.1198195312010541e-06,34.10333333333334,0.020221001184137503,-3.1388897403671636e-05,74.60833333333335,0.8789314851315516,2.1799999999999926,-0.0014901045708834008
S095,11959.0,11988.984375,W,-0.2941927083333334,49.99868197819432,-189.87,246.45,436.32,6.875,38.22042862539853,765.625,749.6826171875,2.6066746256805176,2.3562470067030796,10.50638937337326,62.192371736330706,0.9278906958189065,76.8049477572897,0.053125,38,0.27002841666666666,0.012490854954447895,-1.113369008617895e-05,34.07266666666667,0.01842703328144783,1.6666671187791458e-05,74.99466666666667,0.699893960222229,2.469999999999999,0.0012515975617397894
S095,11989.0,12018.984375,W,0.05535416666666645,59.83885244954763,-205.37,288.02,493.39,1.5,96.09899291197655,765.625,731.4371744791666,3.6288718546540055,5.079342695883221,4.067751813681402,62.35836552747813,3.0706742595223786,86.72369918309528,0.04375,20,0.2422123916666667,0.004394934575348901,-6.618965554189874e-06,34.13033333333333,0.028691849404005376,4.8645846529360755e-05,78.52466666666668,1.3361056179143262,4.200000000000003,0.0024002089844316916
S095,12019.0,12048.984375,W,-0.10373437500000028,68.22556105914919,-369.19,485.66,854.85,5.9,76.8947076218139,781.25,777.5634765625,2.9815315133217286,2.8982483934266225,10.71082326555908,62.172748034919536,0.8110087050958107,70.8942874990644,0.03333333333333333,17,0.25107137500000004,0.009447184275453453,2.2171019469135115e-06,34.190999999999995,0.022561028345357642,2.815972986103872e-05,81.444,0.37095911724429476,1.1700000000000017,-0.0002151389472490618
S095,12049.0,12078.984375,W,-0.09752083333333357,30.127527283331755,-105.95,56.41,162.36,5.555,67.03988302974642,781.25,768.6930338541666,0.4856222740521234,0.2382571993782256,0.4522693069860773,62.073403528430575,0.36209952124807804,62.94441992742486,0.04791666666666667,39,0.25432722500000005,0.0014956814080461728,2.0090689043698085e-06,34.20099999999999,0.018859126879754093,-1.5173615227217663e-05,80.16599999999998,0.9395445705234005,2.789999999999992,-0.001666528229852494
S095,12079.0,12108.984375,W,0.3483072916666667,31.041172483751133,-137.37,106.0,243.37,6.21,69.89779729684854,796.875,797.0621744791666,0.07210109366946756,0.10152910775842672,0.3527406955029273,61.82382047782271,0.19529002179785906,62.94441992742486,0.15416666666666667,87,0.2572626333333334,0.0013190738350153926,1.2222707308677055e-06,34.16199999999999,0.011661903789691206,-1.0763891808781592e-05,78.40066666666667,0.43801014701589835,1.6600000000000108,-0.0006304862821414603
S095,12109.0,12138.984375,W,0.12101041666666669,26.966851683283775,-62.7,45.23,107.93,5.535,50.65696112946597,812.5,805.0699869791666,0.05581428468591173,0.3717217821615157,0.2866665909641373,61.85356087922217,0.22713408746370375,62.94441992742486,0.21041666666666667,100,0.2591301333333334,0.0010560345317375981,6.299341986583729e-07,34.122,0.015999999999999896,-2.0972227911303706e-05,76.44433333333333,0.40772280888967843,1.4500000000000028,-0.0007280210308216778
S095,12139.0,12168.984375,W,-0.4166979166666667,28.922699266255314,-64.31,56.77,121.08000000000001,5.195,47.645536375378306,796.875,796.7041015625,0.07216126567549164,0.4706627640891087,0.19309926563529156,62.10043181181803,0.26203139583956847,63.45864795282043,0.0125,7,0.26018680000000005,0.0009490549299171251,5.698894775090815e-07,34.10133333333334,0.016069294390924645,-2.986111921145859e-06,75.15333333333334,0.17838784213679415,0.6799999999999926,-3.472223164123079e-05
S095,12169.0,12198.984375,W,0.11376562499999997,45.457508788396574,-342.62,144.92,487.53999999999996,6.265,86.32731449289483,796.875,809.6272786458334,2.9214655461771235,1.7327009563587903,18.613088566173595,62.361198636767945,1.490130168443643,75.77598564189053,0.035416666666666666,14,0.26458461666666666,0.008944355578783876,5.826281962424581e-06,34.08466666666667,0.018571184369579094,-1.2083336611149244e-05,76.42233333333334,0.6946782628590664,1.9300000000000068,0.00101364610830244
S095,12199.0,12228.984375,W,0.29261979166666674,68.31206160930715,-410.49,300.47,710.96,6.125,51.041204100089296,875.0,842.4723307291666,1.6872604639663342,2.9250801271076323,15.347858694067247,62.60835289023951,0.8882229663230867,70.12845356914696,0.040625,30,0.2651396666666666,0.01042816531109646,-7.935914045115578e-06,34.13966666666667,0.05250290997226299,8.989585771914519e-05,74.55866666666665,0.618259564332725,2.430000000000007,2.131945022771731e-05
S095,12229.0,12258.984375,W,-0.5266510416666668,36.964670183206394,-77.17,57.53,134.7,6.895,51.45183723002538,843.75,848.3561197916666,0.1428261375083551,0.11987768650679835,0.21225220437933942,62.6399558944254,0.15641998307602623,62.68173577685928,0.0,0,0.26375222500000006,0.0012328535494433295,1.0124340854042184e-06,34.21966666666666,0.013287420951995104,1.2118058842788369e-05,73.01766666666666,1.0788193649644144,3.0400000000000063,-0.0017969796541285946
S095,12259.0,12288.984375,W,0.46630208333333356,67.08069266494455,-560.27,372.94,933.21,7.640000000000001,52.34608811048231,812.5,802.24609375,0.7674362079895197,0.7995434623983171,0.5868707845074019,62.30256249209183,0.3046149246595687,63.60031446463138,0.15416666666666667,62,0.2629196,0.0009746456227778429,2.0182427349834117e-07,34.218333333333334,0.014161763857497551,1.4236114972895458e-06,73.47266666666668,0.37554345805630723,1.5600000000000023,0.0002231945049898298
S095,12289.0,12318.984375,W,0.05308333333333352,40.13776793579902,-103.1,103.87,206.97,7.225,67.41071777439981,796.875,796.533203125,0.3353843152100123,0.17577951388031543,0.7681816722606848,62.274677208280536,0.29402993804184413,65.12296062065974,0.058333333333333334,28,0.263848325,0.0009427300352566516,9.677001322971336e-07,34.236666666666665,0.010749676997732492,3.7500010172535892e-06,74.04533333333333,0.6495317971859078,2.019999999999996,0.0011233336380570837
S095,12319.0,12348.984375,W,-0.15663541666666672,34.834516470622624,-141.78,87.22,229.0,7.265,55.65251994783972,750.0,759.3505859375,0.36902649709140883,0.2327373340628157,0.583894819057527,62.463292375486525,0.34704314979475104,63.89053137985315,0.30833333333333335,125,0.2648410833333334,0.0012234395747463646,-1.128984681256732e-07,34.23533333333333,0.012578641509409341,-8.055557740766088e-06,75.75066666666667,0.17854846836519092,0.8199999999999932,0.0002016667213722657
S095,12349.0,12378.984375,W,0.24541145833333325,33.72482217394238,-110.71,85.15,195.86,5.585,72.82764586539066,718.75,710.1643880208334,0.5651327277728657,0.629869054678563,1.051577848864373,62.163841869217734,0.40503793101221547,65.03076195155643,0.12916666666666668,78,0.26111565000000003,0.0032793124778678824,-1.3334790943682387e-06,34.236000000000004,0.010519822558707393,-2.8472229945806197e-06,78.00633333333333,0.5994857981822604,2.069999999999993,0.0009403821995394412
S095,12379.0,12408.984375,W,-0.37784895833333293,89.72331767838709,-556.9,363.39,920.29,8.79,58.453947779622034,734.375,714.6891276041666,3.2335439082525568,3.3171663607559023,17.241362540363912,62.25316599637779,1.208731467599351,70.57619995437555,0.06770833333333333,35,0.26179872500000007,0.00652135150353884,1.4635110306833329e-06,34.233333333333334,0.016397831834998662,4.513890113360481e-06,78.81666666666666,0.8254305273949809,2.219999999999999,0.001404930936667464
S095,12409.0,12438.984375,W,0.02163020833333335,34.78615243974491,-100.46,78.96,179.42,6.1899999999999995,61.75283571871584,750.0,757.9264322916666,0.5339839781200264,0.3517673014579382,0.8396111192672606,62.696497057070665,0.42240198791742456,64.59876159803684,0.309375,163,0.26090204166666664,0.0013208556532025755,1.4280105870254325e-06,34.217999999999996,0.014922019523731673,-1.9930560962063524e-05,79.94966666666666,0.2739036732543436,0.9100000000000108,0.0003881598275173148
S095,12439.0,12468.984375,W,0.16267187500000013,35.48738960145797,-115.66,147.93,263.59000000000003,6.029999999999999,63.602363800776935,757.8125,767.6350911458334,0.22441813265395666,0.4987440823931872,0.5614950513658453,62.52945131115575,0.26022821868905827,63.63961030678928,0.26145833333333335,68,0.263005,0.0009968415370559223,2.5019538036987024e-08,34.16666666666666,0.020221001184138287,-2.3125006273060376e-05,80.78566666666666,0.6950476402536897,2.280000000000001,-0.0008878821852979018
S095,12469.0,12498.984375,W,0.021906250000000002,32.40177317697358,-76.86,72.39,149.25,5.79,63.96088799045688,828.125,821.1181640625,0.1757795138803154,0.10197698542100349,0.17967164785148124,62.86836543666839,0.12450831907131611,63.7102817447859,0.00625,3,0.2636668416666667,0.0010799919135178276,1.1542444537338538e-06,34.15266666666665,0.006289320754703152,-1.736111582061173e-06,78.60633333333334,0.7426685368019539,2.3500000000000085,-0.001206007271594854
S095,12499.0,12528.984375,W,-0.03068229166666671,35.17098777169276,-96.92,64.7,161.62,7.62,48.65503105760624,812.5,805.4606119791666,0.17748422758562707,0.0911919526176637,0.4456531956951878,62.80771260931882,0.13914663206051817,63.63961030678928,0.004166666666666667,2,0.26402980000000004,0.0016197883534585628,1.800850748928698e-06,34.15066666666665,0.00813770374382085,4.4444456500766035e-06,75.18066666666667,0.8296020464991359,2.519999999999996,-0.0012791670136629262
S095,12529.0,12558.984375,W,-0.37063541666666666,42.664216738488776,-267.88,137.78,405.65999999999997,6.885,61.930282933614976,796.875,774.1048177083334,1.5265442858290164,1.6735842768134572,4.229113300155904,62.76901377956169,1.1550941409806688,76.4591394144611,0.019791666666666666,9,0.26853413333333337,0.004208190050234051,4.1149051961005775e-06,34.152333333333324,0.011160446028520817,-8.159724435687934e-06,74.07866666666665,0.4961635035169583,1.7199999999999989,2.8958341188785696e-05
S095,12559.0,12588.984375,W,0.37998958333333327,33.824616261063845,-72.93,64.13,137.06,7.25,46.96983633831748,812.5,814.8111979166666,0.3225064598836226,0.25693294831639546,0.16110175679261438,62.92378820728175,0.2641861310087977,63.96092557178953,0.042708333333333334,35,0.27549371666666667,0.0010534534334221387,5.459732383824971e-07,34.17166666666666,0.021768989156341838,2.982639697981813e-05,75.425,0.39116705723599293,1.3799999999999955,-0.0006489932316062376
S095,12589.0,12618.984375,W,-0.0005052083333335252,44.62027625564617,-140.8,117.63,258.43,5.005000000000001,26.891961474753668,796.875,798.2421875,0.6387030791094472,0.5586441920698122,1.616376356558604,62.79123833568752,0.384562440816367,64.37390775772433,0.078125,66,0.2767850333333333,0.002463675681893936,6.982172032924178e-07,34.28,0.03296462750687005,5.201390299856362e-05,75.24100000000001,0.287243798888679,1.0,5.3159736642724864e-05
S095,12619.0,12648.984375,W,-0.13730208333333319,40.898505098398715,-128.45,96.11,224.56,6.405,50.97379518600189,781.25,766.748046875,1.0119918992594095,1.140432346743988,1.0204032895203194,62.571683324873945,0.33551585907528586,64.03124237432849,0.07291666666666667,41,0.2814387833333333,0.003492092794641763,3.7347866034034947e-06,34.342999999999996,0.020680103158994156,2.7743063081343e-05,75.025,0.7654094764677704,2.25,0.0012841322927876224
S095,12649.0,12678.984375,W,0.13868229166666654,34.81121395714167,-74.06,59.22,133.28,6.975,55.054484435007225,765.625,776.2288411458334,0.36940267098835833,0.3944053188733077,0.5220392289830548,62.47234783763682,0.36303900614312706,64.20280367709809,0.17916666666666667,106,0.28461985,0.0011080131215378266,3.1607821074170146e-07,34.45866666666667,0.03169998247458378,4.2569455992148864e-05,75.91499999999999,0.2424424330296439,0.8500000000000085,0.000434201506673586
S095,12679.0,12708.984375,W,-0.13107812499999966,37.78511254634198,-158.41,88.88,247.29,4.39,58.06877395154393,843.75,813.4195963541666,35.17903969673383,9.581847710935275,6.227621045703478,63.13957982095997,1.2001395888081394,71.72865536171719,0.10208333333333333,67,0.2442936333333333,0.031230207607628156,-5.400311534372704e-05,34.461333333333336,0.021092389359408794,2.083333898479329e-07,76.365,0.3486712874136135,1.4200000000000017,-0.00010045141613807832
S095,12709.0,12738.984375,W,0.14646354166666645,58.89473854403757,-210.23,264.87,475.1,2.625,56.83576737502579,828.125,807.9915364583334,24.366771558961133,17.778906431186616,20.921122299961123,63.55629566895019,3.7167119215307824,94.51454914456292,0.07604166666666666,33,0.2191565,0.029482416803353596,9.326920498839112e-06,34.419999999999995,0.058821764679411345,-4.8263901981310234e-05,77.071,0.16607929832863985,0.46999999999999886,2.468750669691537e-05
S095,12739.0,12768.984375,W,0.08636458333333318,59.12923196898535,-209.1,220.9,430.0,-0.08499999999999999,88.34047684484926,828.125,760.0260416666666,37.63937288921078,36.627441124918555,22.799530536064346,65.23945387850269,9.814270611447398,101.26203632161463,0.13541666666666666,54,0.17970579166666667,0.01006065415773732,-7.714780521587598e-06,34.458666666666666,0.03273462319250961,3.243056435291009e-05,76.39766666666667,0.18604091545201099,0.7399999999999949,-0.00013579864794885068
S095,12769.0,12798.984375,W,0.6435989583333329,74.06148884834084,-352.54,193.92,546.46,4.494999999999999,0.0,656.25,656.25,34.95946125452446,22.92470919481132,19.816579468505587,66.12444685101048,10.80707848192828,121.30539971493437,0.12291666666666666,48,0.1863130166666667,0.010026955222451906,6.734277434428557e-06,34.476,0.028472208672083676,4.513890113359965e-05,76.30466666666668,0.12994186734416666,0.46999999999999886,-0.00013486114769454015
S095,12799.0,12828.984375,W,0.18125520833333322,103.059732221464,-487.38,311.87,799.25,5.545,0.0,656.25,656.25,24.28631837921645,23.76751435254145,20.339615208543087,66.19793709143806,13.280146516687106,135.57654664432192,0.12708333333333333,55,0.19376336666666666,0.012575999433400467,9.70447311861793e-07,34.501000000000005,0.0198913716637811,-1.3715281498286302e-05,76.64433333333335,0.22171578403192102,0.8500000000000085,-0.0003473959275705112
S095,12829.0,12858.984375,W,-0.6490729166666668,97.27243759783062,-489.16,352.55,841.71,3.475,5.857114002424017,656.25,655.1106770833334,19.644279167051547,14.678611967946955,13.69551511742429,64.74422366295026,10.003909766446576,122.00409829181969,0.09375,34,0.20155529166666666,0.01789996720499595,-9.163221886724684e-06,34.489333333333335,0.024621580416825904,-3.409723147168884e-05,77.82633333333334,1.0821783073453706,3.0999999999999943,0.0018583685596702927
S095,12859.0,12888.984375,W,-0.21009374999999988,52.487934550987156,-308.9,209.22,518.12,5.06,52.874642152730175,718.75,692.5618489583334,1.7332081284908247,2.016145766059587,2.3334486578643396,63.25245879475342,1.2472462005103686,72.73926037567333,0.05625,25,0.19137231666666668,0.0021271522315971887,-5.191056095664108e-07,34.404999999999994,0.028838631497814005,-4.677084602073841e-05,78.67133333333332,0.4316227776916129,1.4000000000000057,0.0006439585080182598
S095,12889.0,12918.984375,W,-0.04538541666666684,27.81952988791844,-134.02,78.37,212.39000000000001,5.3100000000000005,42.782899844414736,750.0,748.6979166666666,1.0868487633406037,0.98489844989076,1.202411855743835,63.22785464285797,0.8195917245546663,70.00714249274856,0.06458333333333334,42,0.1911481666666667,0.0012670653977684937,-1.2283215137590944e-06,34.318333333333335,0.023392781412696698,-3.656250991821576e-05,78.75833333333334,0.6120679882351495,1.75,-0.0007676738193559628
S095,12919.0,12948.984375,W,0.03554166666666682,28.55517429429263,-66.83,46.99,113.82,6.145,60.49164197705526,828.125,833.7809244791666,1.5909411522743386,1.0735920204569747,1.5694788590130446,63.07167654990804,0.6283845827046111,66.64082832618455,0.051041666666666666,32,0.19230085000000002,0.0017495801432057972,2.142107785945044e-06,34.25266666666666,0.019821424996425478,-2.6250007120771676e-05,78.32633333333334,0.9557073587430176,3.049999999999997,-0.0015373268059154742
S095,12949.0,12978.984375,W,-0.4152812500000017,87.26015240673085,-487.65,309.82,797.47,6.54,36.456290596547106,828.125,814.3473307291666,2.6445943211131437,1.8808935155044442,4.003913965100968,63.29412669145586,1.062321215986042,71.63797875428926,0.058333333333333334,35,0.20058391666666667,0.0031780890080448597,1.9743303966825095e-06,34.258666666666656,0.025130769099961904,3.645834322329453e-05,73.69699999999999,1.5540337834165643,4.480000000000004,-0.002768716028840069
S095,12979.0,13008.984375,W,0.6259427083333333,82.33216119556279,-171.36,159.91,331.27,18.645000000000003,53.700356414159906,859.375,863.7776692708334,0.48209139110235105,0.3058866183145136,0.494710519661639,63.41042863998493,0.40290366099763736,64.96922348312314,0.03958333333333333,25,0.201106675,0.0009713076852238978,7.603159614572404e-07,34.30866666666667,0.018571184369577803,1.8888894012829363e-05,71.29766666666667,0.2650494712732357,0.75,-0.00042329872593823765
S095,13009.0,13038.984375,W,-0.1659895833333334,126.13963012380655,-621.54,398.45,1019.99,14.615,61.02903398114046,859.375,858.5774739583334,1.502861853265296,1.3309858892940976,1.648861928641153,63.32465109914234,0.8042987661456988,68.54195795277518,0.06666666666666667,33,0.20327369999999997,0.0012659667886639053,5.982449539509978e-07,34.34633333333333,0.022727858578306774,3.3993064776764334e-05,70.82033333333334,0.3259804015922147,0.9699999999999989,0.0004473959546972526
S095,13039.0,13068.984375,W,0.2563281249999996,87.88847649570496,-640.33,227.27,867.6,15.33,80.30195469610292,859.375,838.9567057291666,0.615708715402196,0.46541755259539674,0.5573598089181012,63.31879744456573,0.3206350584761074,64.69157595854347,0.134375,92,0.20437322499999996,0.0012241856167979571,1.2051077487813962e-06,34.401333333333326,0.016878651868229243,2.354167305275301e-05,69.89533333333334,0.39333389830467946,1.4200000000000017,-0.0006612501793755921
S095,13069.0,13098.984375,W,-0.6916979166666665,72.72316126594684,-161.77,147.71,309.48,12.62,52.94220773560617,828.125,827.9378255208334,0.5864120763284884,0.3902998646873965,0.4706489314411185,63.32880748595682,0.462845265671154,70.66823897621902,0.0625,35,0.20644416666666668,0.0010148815639713232,9.187528533943232e-07,34.46933333333334,0.025420901286583503,3.826389926863561e-05,69.94366666666669,0.2219832326000213,0.6499999999999915,-7.621529845250033e-05
S095,13099.0,13128.984375,W,1.1255260416666664,90.05111079810887,-623.45,334.02,957.47,20.535,58.70278618919297,843.75,835.107421875,1.5148211642706282,1.507376250218313,2.3989994930612917,63.460677959772106,0.7648929463846454,70.75309180523492,0.06666666666666667,29,0.20856821666666672,0.001622782508447216,2.342323552062603e-06,34.563,0.02672701504720209,4.1076400031576655e-05,70.46499999999999,0.5608431153183567,1.7999999999999972,0.001001284993838159
S095,13129.0,13158.984375,W,-0.9847239583333335,155.17546741487135,-679.17,647.83,1327.0,2.14,47.58208223759164,703.125,743.8883463541666,6.273786679952989,2.773460533941908,33.626941532521165,63.705214188729066,1.3341889551907864,71.45628033979938,0.084375,41,0.2266816,0.017268359187349945,1.9194537758934936e-05,34.65999999999999,0.01751190071541816,1.548611531198892e-05,71.20199999999998,0.21306337085477695,0.769999999999996,-0.000350138983870168
S095,13159.0,13188.984375,W,-0.12826041666666685,58.49584637493233,-185.94,220.61,406.55,3.625,109.63131858433488,796.875,757.5520833333334,4.486662332835945,1.0784299085746525,4.62350576462878,64.07118134508944,1.1553193114148599,71.40728254176881,0.06875,31,0.25017504166666665,0.02821936808747845,1.9806473905836018e-05,34.736,0.03895296308797722,5.916668271665571e-05,71.74033333333334,0.4506179707419079,1.5499999999999972,1.1145836356835666e-05
S095,13189.0,13218.984375,W,0.43499999999999966,156.02985932920555,-553.44,849.73,1403.17,2.9400000000000004,35.2333551387545,765.625,767.3095703125,2.5939298799740564,1.8477170128897504,5.218872565925997,64.01259317079682,1.7033664364202536,73.68174807915459,0.075,39,0.2436958,0.008524469721141995,-1.7814097714327728e-06,34.903,0.04495553358597837,6.809029624845289e-05,67.39433333333335,1.4019835551421027,4.549999999999997,-0.0018846185667910603
S095,13219.0,13248.984375,W,-0.45617187499999934,99.93368138098323,-322.22,849.2,1171.42,4.25,41.791664028452885,750.0,740.5680338541666,0.6673946220919241,0.835397833328861,1.0571428466692137,64.1189835517043,0.5089924324322036,66.76825593049439,0.1125,59,0.22985153333333333,0.000918377890026153,4.941876340569742e-07,35.00833333333333,0.015723301886761142,1.149305867324689e-05,72.29366666666667,2.8603187273837536,9.5,0.005141286116885338
S095,13249.0,13278.984375,W,0.835458333333333,66.30483077312263,-125.84,128.63,254.47,10.395,72.12141569029068,796.875,806.6324869791666,0.21874007914011145,0.248746859276655,0.48512598592759615,64.0163989440081,0.2513289509719076,65.75712889109438,0.05,23,0.23087625000000003,0.0011487411098676597,1.1798102158773284e-06,34.987,0.01441064421414526,-1.475694844752266e-05,82.02933333333334,2.1711347775350625,6.75,0.003627709317412468
S095,13279.0,13308.984375,W,-0.5809375000000002,68.25494192315743,-151.62,143.83,295.45000000000005,4.74,45.76350296673338,828.125,838.916015625,0.3292045732392955,0.4947368390675548,0.45207733290948743,63.899767963200915,0.36496015638419527,66.29479617586888,0.058333333333333334,30,0.23151675,0.0011124558811476447,9.724260450374394e-07,34.952,0.013012814197294838,-6.87500186496296e-06,77.85799999999999,2.8167278888809983,9.010000000000005,-0.004947640231022199
S095,13309.0,13338.984375,W,0.49910416666666796,133.92030384799443,-559.01,675.92,1234.9299999999998,5.73,14.7262113592826,828.125,832.9427083333334,12.08261420273867,20.824449121323646,29.74114741581728,64.30059400893612,4.890921191142668,102.67424214475605,0.08333333333333333,40,0.233000575,0.028038031150760954,3.4221645567937713e-07,34.953,0.023544284515214335,1.8576393928058376e-05,72.54766666666667,0.8808430936072303,3.019999999999996,-0.0015579518115103655
S095,13339.0,13368.984375,W,-0.23365104166666656,58.731996436967634,-227.51,178.6,406.11,6.855,46.407433240357356,812.5,803.7434895833334,1.5482839402778232,0.9716014263046459,2.105939846930317,64.01121694873187,0.9040076008430044,71.30918594402827,0.052083333333333336,26,0.21682970000000001,0.005263477443034531,-4.023139980235461e-06,35.03733333333333,0.02322833518691138,3.0555563844281853e-05,70.537,0.42955907626309076,1.5999999999999943,0.0005745487669674376
S095,13369.0,13398.984375,W,-0.06366666666666647,55.58339403257555,-117.94,117.35,235.29,8.3,39.73941147993334,796.875,795.4264322916666,0.49369285885952296,0.41381838978254964,0.7054352478356103,64.19377451529117,0.4017422224347997,65.52098900352466,0.03958333333333333,25,0.21891095833333332,0.0016697842844503117,2.526045173080838e-06,35.055,0.016482313753435136,6.006946073932745e-06,72.61466666666668,0.6382462081534221,2.4599999999999937,0.0011072225225755526
S095,13399.0,13428.984375,W,-0.5226145833333332,54.859462445695,-109.34,95.36,204.7,5.475,36.921165540927156,843.75,841.5934244791666,0.22043990110685496,0.3210226714043037,0.21489661597046042,64.13792047193864,0.24167650956087952,64.91532946846992,0.026041666666666668,19,0.222529375,0.0019825932347244083,2.267813332197624e-06,35.05333333333333,0.011642832797715717,9.027780226723528e-07,74.94366666666666,0.5720925527297906,1.8199999999999932,-0.0006722571268058612
S095,13429.0,13458.984375,W,0.2421822916666664,56.12187960310595,-137.91,156.63,294.53999999999996,8.094999999999999,69.81866987894979,828.125,836.669921875,0.500952868084081,0.5426583470262134,1.0972483734576943,64.07307346718228,0.8136890084019417,70.09279563550022,0.03125,13,0.23105788333333335,0.0023922315947783024,2.648106621122665e-06,35.05733333333333,0.017499206331209806,1.3958337119775777e-05,72.90866666666668,0.38136363515970195,1.4799999999999898,-0.0006722224045742203
S095,13459.0,13488.984375,W,-0.2079218749999999,48.92576227800115,-104.45,86.46,190.91,4.645,28.698449796235064,843.75,853.6702473958334,0.04559597630883185,0.03225804701500421,0.3869395588747966,64.13260202254267,0.13686788576425007,64.8074069840786,0.0010416666666666667,1,0.236202975,0.0022703453205129447,3.3888292612926696e-06,35.08933333333334,0.015902480589168773,1.4236114972903716e-05,71.21766666666667,0.302629402992432,1.0600000000000023,-0.0004470487323808416
S095,13489.0,13518.984375,W,0.28084895833333307,113.32784375595003,-632.8,784.44,1417.24,5.365,56.71688164330132,859.375,850.048828125,2.7178806081209674,1.2016897102506212,8.257717087249691,64.00254660485945,1.3459301961072068,80.65977932030313,0.036458333333333336,18,0.25213895833333333,0.026851269492457842,1.4741732948603765e-05,35.12433333333333,0.025519056060563233,4.0104177545619687e-05,70.82300000000001,0.12069658929177103,0.4200000000000017,-8.315974478074562e-05
S095,13519.0,13548.984375,W,0.5089166666666665,69.33926433946995,-404.41,328.52,732.9300000000001,8.195,62.37984020859954,812.5,806.2825520833334,2.151973163927443,1.7950159465207791,14.797179100477132,63.75574934776332,0.6218655576925827,67.74953874381728,0.1125,65,0.2627380916666667,0.02192218724298734,1.1405785863114643e-05,35.282666666666664,0.052594887795509866,9.173613599613181e-05,72.07966666666667,0.7096688586156856,2.3900000000000006,0.0012761461795101408
S095,13549.0,13578.984375,W,-0.49845312500000005,56.00763287037397,-311.74,220.36,532.1,5.635,62.12228391625664,828.125,821.1995442708334,1.3593295011542763,1.4076289535361701,1.5756526287850448,63.66898515292061,0.6830663197473615,71.16178749862878,0.04479166666666667,24,0.24496609166666666,0.0038077410560502364,-4.777733283890328e-06,35.352000000000004,0.017776388834629613,-2.284722841992785e-05,75.047,0.6778011016023306,2.1400000000000006,0.0009622572054734179
S095,13579.0,13608.984375,W,0.11589583333333374,39.7983980418494,-131.61,93.63,225.24,3.925,51.48735093099322,796.875,776.1555989583334,0.2517107266894988,0.3936218376077053,0.41435687910771907,63.58514353052888,0.23125858983600556,65.12296062065974,0.12291666666666666,71,0.24313015,0.0009055521395811538,4.314480337044377e-07,35.31266666666667,0.01878533707147401,-2.84722299458096e-05,75.986,0.185824289765,0.6700000000000017,0.0002751389635251092
S095,13609.0,13638.984375,W,-0.36157291666666685,43.378242369505934,-178.12,150.89,329.01,1.24,64.57492404456912,750.0,736.7513020833334,1.2859918182466101,0.8297187232563951,0.5822870080314536,63.553628453263514,0.9670929416898878,71.28113354878694,0.016666666666666666,3,0.24135815833333335,0.0019123636639676769,-1.5301152154175434e-06,35.257333333333335,0.013148721948878813,-7.430557571224633e-06,75.87366666666667,0.44312890023357987,1.5799999999999983,0.0005459376480950652
S095,13639.0,13668.984375,W,0.19765624999999978,38.42710176867583,-77.93,87.53,165.46,1.74,35.491012629555186,812.5,823.2096354166666,0.5155523938779969,0.527695420292068,0.5660535899247231,63.475959067467116,0.45588243941994505,66.07571414672717,0.24479166666666666,136,0.24188117500000003,0.0009783216722402737,7.920073763040863e-07,35.22933333333334,0.015040685563570915,-4.375001186795982e-06,77.364,0.1981346343609145,0.5799999999999983,0.00028534729962763095
S095,13669.0,13698.984375,W,0.4130572916666656,93.46755244009843,-225.13,307.58,532.71,6.005,55.46800257697116,828.125,806.4290364583334,0.7170420528501488,0.588651354085478,0.5625424366708306,63.46525108305077,0.5056233433328705,68.90573270780887,0.23333333333333334,131,0.24337564166666664,0.0015643614074963281,5.445515800107372e-07,35.22133333333333,0.015860503004492692,1.4583337289313854e-06,76.21633333333332,0.8128201249695753,2.8200000000000074,-0.0014492712264733147
S095,13699.0,13728.984375,W,0.04517708333333393,81.65409916716965,-208.16,198.31,406.47,6.640000000000001,56.88992063552006,796.875,794.580078125,0.06451609403000844,0.20912350152216008,0.3996729891597491,63.85733704828302,0.18787434270544803,64.319514923544,0.0010416666666666667,1,0.24280990000000002,0.0008550668336451864,3.169141484684657e-08,35.221999999999994,0.012220201853214228,5.972223842289498e-06,74.43933333333334,0.6032187736542102,1.6800000000000068,-0.0009160419151589405
S095,13729.0,13758.984375,W,-1.063421875,86.00026655487483,-352.73,309.59,662.3199999999999,8.29,46.628845419896464,773.4375,781.8684895833334,0.5251942431668074,0.4221912394973791,0.298426137799996,63.83576221274529,0.32378653128305945,65.7723346096214,0.017708333333333333,10,0.24117662500000006,0.001347546987817119,-1.6265479672710385e-06,35.22133333333333,0.01667999467092815,1.4583337289315161e-05,74.22466666666668,0.5380565852109692,1.6500000000000057,0.0008591668997306049
S095,13759.0,13788.984375,W,0.9425937499999999,76.91693471586709,-177.72,154.32,332.03999999999996,9.51,81.99320561862925,843.75,823.14453125,0.5278650329919151,0.5330687820430764,0.4915783819042041,63.74562879534444,0.417104486694834,65.1536645170477,0.10416666666666667,69,0.2402159166666667,0.0009627380102545414,3.138004323460347e-07,35.22666666666667,0.012736648783027734,1.118055858847578e-05,74.57033333333332,0.41895491669417406,1.490000000000009,-0.00014100698269503873
S095,13789.0,13818.984375,W,-0.033838541666666624,77.58943495120226,-151.79,124.72,276.51,14.629999999999999,41.53797621230635,843.75,833.49609375,0.6657513247368635,0.3868932862309135,0.5055894181272214,63.73522438109987,0.49720695642647694,66.2872536767062,0.16875,116,0.24140080000000008,0.0008090495102278966,3.95308700984349e-07,35.233333333333334,0.011642832797715717,7.430557571223449e-06,73.70833333333333,0.6439517752820395,2.3100000000000023,-0.0011277433614755232
S095,13819.0,13848.984375,W,-0.33364583333333314,74.01869476861616,-207.62,146.58,354.20000000000005,13.485,41.278717082668486,812.5,807.2021484375,0.442922742197277,0.5182603110406969,0.5286537868859816,63.74608228639154,0.38932822904674985,65.4446330878247,0.10416666666666667,71,0.2427245,0.000978379910873075,9.157150921536198e-07,35.24733333333334,0.012364824660662155,4.305556723512869e-06,72.292,0.2918150098949672,1.0500000000000114,0.00019569449752997593
S095,13849.0,13878.984375,W,0.3189218749999999,89.56255492981649,-383.53,214.44,597.97,13.26,41.94194064481279,781.25,795.8251953125,0.5989130417658496,1.0142731387550397,0.9519710683264253,63.52456405751237,0.4239826682866224,65.36818798161687,0.16875,92,0.24239357500000003,0.001084392961234537,-2.86612707957007e-07,35.25866666666666,0.01117536974282789,6.87500186496407e-06,73.50733333333332,0.40415288636301366,1.3800000000000097,0.0006486112870581828
S095,13879.0,13908.984375,W,-0.4278125000000002,74.9092416118377,-218.25,139.86,358.11,13.065,56.46782073932459,781.25,781.5511067708334,0.7651245529959304,0.6550675524431727,0.5195985362651524,63.596516397749475,0.6437018492919498,69.72087205421343,0.041666666666666664,26,0.24256437500000003,0.0008442703562100264,-1.3621748486802497e-08,35.28533333333334,0.014313940369055296,1.4652781752598446e-05,74.46299999999998,0.35111394162009585,1.2199999999999989,0.0006153126669142428
S095,13909.0,13938.984375,W,0.4173489583333332,70.78332938375435,-184.49,133.29,317.78,14.64,45.581492752397494,796.875,794.970703125,0.7681795534827055,0.44600366683843895,0.41701938196030597,63.5179881087192,0.5016422569315153,66.25707509390978,0.028125,11,0.2430661,0.0009885764714982887,7.166707673260569e-07,35.31633333333333,0.013287420951995685,9.826391554467523e-06,75.04533333333332,0.37742755007491785,1.1999999999999886,-0.0004670140155745467
S095,13939.0,13968.984375,W,-0.6983697916666667,68.09000158490234,-166.37,114.01,280.38,12.25,37.239835867214474,812.5,813.720703125,0.3197747009614738,0.12426432820358738,0.1707316770712323,63.271242452345454,0.26197048787597077,66.36264009214823,0.1,73,0.24390942499999996,0.0008044588208075068,2.054382067703476e-07,35.33733333333334,0.01093414631123798,1.0694447345499836e-05,75.16466666666669,0.3121829947678484,1.25,-0.0003713889896346018
S095,13969.0,13998.984375,W,0.7097864583333335,64.61085305105985,-133.5,126.31,259.81,13.84,54.881074816797046,812.5,807.03125,0.45672064766112774,0.2289771944005681,0.2757388275917389,63.80015710714854,0.35260190464910673,66.76076692189807,0.0125,6,0.24450722499999997,0.0009614021397807509,3.288679277528027e-07,35.36566666666667,0.015638272140984896,1.496528183736963e-05,74.27,0.4700638254535235,1.480000000000004,0.0005688890432099197
S095,13999.0,14028.984375,W,-0.00909374999999996,63.43973034430299,-135.82,108.24,244.06,11.775,32.88996096011424,828.125,827.0100911458334,0.5014205081981257,0.20879116360612582,0.3352484050007629,63.71950321748533,0.4341098749653978,66.40030120413611,0.019791666666666666,12,0.24516904999999997,0.0009280218733952347,3.032613669871331e-07,35.396666666666654,0.013984117975601272,1.611111548152976e-05,73.76933333333335,0.2506648936107503,0.75,-0.0004450695651772904
S095,14029.0,14058.984375,W,-0.06844791666666653,62.61507507754053,-237.98,132.73,370.71,12.365,57.35954598371575,812.5,805.1188151041666,0.6056366814605566,0.4326805479764745,0.4275607088148094,63.780911855766924,0.45123849594494747,66.51315659326356,0.04583333333333333,24,0.24546796666666668,0.0010300335587844832,9.70204256240307e-08,35.41333333333332,0.014681810363697239,1.7013893504203542e-05,73.42599999999999,0.233974357569371,0.7199999999999989,-0.0003081250835842796
S095,14059.0,14088.984375,N1,-0.04391145833333295,64.01845076049099,-160.93,123.73,284.66,13.09,45.21612024118864,812.5,804.0283203125,1.204287407441522,0.6026417537254893,0.8383643704907392,63.68721556024238,0.7637839026101696,70.24243731534378,0.028125,11,0.24596968333333333,0.0009197405067312332,5.142436290808459e-07,35.434666666666665,0.013349989596335944,5.069445819620427e-06,74.05400000000002,0.454118927154551,1.7000000000000028,0.000753333537688135
S095,14089.0,14118.984375,W,-1.1329791666666664,73.84272256500343,-274.57,152.68,427.25,12.129999999999999,52.04436751932417,796.875,797.3225911458334,1.355799896509437,0.9233509841498819,0.5272510849654292,63.60663717974536,0.7266349502326857,69.4334213473598,0.027083333333333334,11,0.24705830833333337,0.0013552126019917377,-4.330797615776264e-07,35.45066666666666,0.014126413400277675,1.034722502908654e-05,75.49433333333333,0.30699276140579523,1.0,0.0005004515246450533
S095,14119.0,14148.984375,N1,0.8919947916666664,70.2805400922348,-168.79,133.38,302.16999999999996,14.47,55.52358230455761,765.625,768.2047526041666,0.8434387285919998,0.5797359312652615,0.4304188851185164,63.52220583010958,0.4875446754153193,65.58200972827838,0.06458333333333334,32,0.24739988333333335,0.0009870749986984487,3.8125140550439273e-07,35.46933333333334,0.013888444437332446,1.729167135733143e-05,76.52733333333335,0.5199803415087492,1.3599999999999994,0.0008452085626108306
S095,14149.0,14178.984375,N2,-1.1227343750000007,81.44315661777203,-315.22,184.29,499.51,10.115,42.916930577475924,781.25,770.8414713541666,1.867781242767293,1.5863512904355916,0.6598578077047274,63.470531232092114,0.802339360465684,67.62396025078685,0.0625,24,0.24701556666666669,0.0016000482791327097,-1.0161352582832164e-06,35.49900000000001,0.015779733838058956,2.017361658355347e-05,77.81766666666665,0.778792583997106,2.0799999999999983,0.0013580906461834437
S095,14179.0,14208.984375,N1,1.7481874999999996,87.49879716819832,-276.79,210.0,486.79,17.21,40.75930882505034,765.625,761.1735026041666,2.212788107026342,1.345878482214828,0.8986094340315794,63.47127133058257,1.2058049923464549,71.26008700527947,0.0375,10,0.24340771666666672,0.0029900731545770324,-3.588291337969664e-06,35.540333333333336,0.016017351702311115,1.239583669591823e-05,78.632,0.3838350340098372,1.3100000000000023,-2.3750006442600378e-05
S095,14209.0,14238.984375,W,-0.3059687500000004,81.68881053717327,-203.01,163.44,366.45,8.585,74.97061710171363,796.875,776.1962890625,1.5972303366339775,1.1184822770909992,0.6620641910385695,63.398661622269024,0.7333686010689509,67.05967491719595,0.059375,23,0.24178520833333333,0.002160682715778482,-2.859254898886417e-06,35.56066666666667,0.014360439485692737,7.222224181375936e-06,78.70866666666667,0.7645989507941767,2.049999999999997,-0.0013416670306171414
S095,14239.0,14268.984375,W,0.2326979166666663,101.40562373516116,-548.63,381.97,930.6,3.74,74.55528477756822,812.5,801.7415364583334,3.8359813091524138,5.825131045110345,18.710161380621198,63.355682194977426,1.6665309105111255,74.05403432629447,0.046875,17,0.2524484166666667,0.019580994359149787,2.628604402290691e-05,35.58466666666667,0.01627540748764601,1.930556079252523e-05,77.90433333333334,0.38758812617978444,1.5,-1.7187504662410548e-05
S095,14269.0,14298.984375,W,-0.5444895833333334,45.111969341456096,-140.68,129.1,269.78,6.035,60.79617057572375,843.75,828.2389322916666,0.8040364477901484,0.9156901759131683,1.9400341849794525,63.293983338056265,1.08147578267926,71.50524456289902,0.04791666666666667,17,0.2870531583333333,0.0022477217613835606,3.665229943910028e-06,35.67799999999999,0.027251911247959698,4.548612345001231e-05,77.00900000000001,0.43739646393937154,1.3299999999999983,0.0005529515388865936
S095,14299.0,14328.984375,W,0.308203125,37.528593130360704,-85.15,119.17,204.32,4.575,76.55880285492583,796.875,779.7688802083334,0.822201033768844,0.6683499257603676,1.0017427305770124,63.17134389904274,0.7195612011563519,68.73136110975832,0.05625,21,0.29342574999999993,0.001456658414831694,2.1766998092176027e-06,35.73533333333333,0.02617038190185478,4.013889977726328e-05,76.67433333333334,0.2974411239593844,0.9500000000000028,-0.0004550348456583234
S095,14329.0,14358.984375,W,-0.17958854166666688,37.71436890308236,-119.38,141.15,260.53,3.69,48.198407239569825,781.25,792.9443359375,0.6837365426260485,0.4041398186959008,0.9719838497458004,63.240004396064464,0.6001477477107744,66.49060083951716,0.053125,21,0.29763095000000006,0.0017336548813128893,2.3763383182341376e-06,35.81433333333334,0.022757172251597544,3.336806460722221e-05,75.97000000000001,0.276550176279097,0.8699999999999903,-0.00039409732912796316
S095,14359.0,14388.984375,W,-0.22596875000000002,37.953817962303745,-87.93,114.04,201.97000000000003,0.925,57.8343232809424,828.125,807.3404947916666,0.9864308338300032,0.9013011427930179,1.7873870885084369,63.07622245692148,1.1481661748004046,71.62401831787993,0.065625,29,0.30228496666666665,0.002413407601067188,2.371228073792339e-06,35.90766666666665,0.026291105382281764,4.246528929722557e-05,75.55966666666667,0.27426852211331615,0.8299999999999983,-0.00037961815853357204
S095,14389.0,14418.984375,W,0.321557291666667,55.11314231804055,-239.65,198.1,437.75,5.8,38.39583774345154,812.5,806.3639322916666,1.6350089061726512,2.0301800066434996,2.596464443077676,63.311686123967064,2.2218573627210376,86.74099376880577,0.03125,13,0.30517787500000004,0.0013382515867261327,1.1572123364833839e-06,35.952,0.013012814197294838,-4.236112260230569e-06,75.55999999999999,0.3363628992620921,0.9500000000000028,0.000501597358289213
S095,14419.0,14448.984375,W,-0.2987343750000001,48.30076639544943,-114.87,95.45,210.32,7.1850000000000005,53.345028245714445,765.625,770.0439453125,0.5980836003900756,0.48658657303254427,0.7477280402808378,63.2435438083511,0.5400616272010496,66.89544080129826,0.051041666666666666,21,0.30835818333333337,0.0014079095377150083,1.982135954355456e-06,35.965333333333334,0.015216949614017213,3.4027787008395537e-06,76.2,0.4351321638307155,1.7600000000000051,0.0005604168186894596
S095,14449.0,14478.984375,W,0.44845833333333324,48.81175424545913,-101.95,114.46,216.41,6.95,60.6151952822446,781.25,776.3102213541666,0.6557033106498871,0.600953199728472,1.1445973447449642,63.25215539520032,0.6448872212248865,67.74953874381728,0.0375,13,0.31137909166666666,0.0011623143435679803,1.0741741195133679e-06,35.98033333333334,0.011685698761973081,1.3645837035004963e-05,77.01866666666666,0.5515779384839661,1.6200000000000045,-0.0006376390618595525
