participant_id,window_start_time,window_end_time,sleep_stage,BVP_mean,BVP_std,BVP_min,BVP_max,BVP_range,BVP_median,SDNN,median_nni,IBI_mean,x_std,y_std,z_std,mag_mean,mag_std,mag_max,movement_density,burst_count,EDA_mean,EDA_std,EDA_trend,TEMP_mean,TEMP_std,TEMP_slope,HR_mean,HR_std,HR_range,HR_trend
S096,7165.0,7194.984375,W,-0.035484374999999985,17.104530271452866,-131.74,122.33,254.07,-0.02,101.4910637440433,734.375,636.62109375,19.699375937485655,27.684000594005354,5.835011291405813,64.28758341826399,2.115998953941603,83.46256645946133,0.05416666666666667,15,0.04488379166666666,0.004011079912558531,2.46557575563578e-07,33.89599999999999,0.017243356208503063,-1.8958338476110526e-05,73.08099999999999,0.49053949891930293,1.7199999999999989,-0.0007867710467586402
S096,7195.0,7224.984375,W,-0.050151041666666694,27.6322789981832,-127.87,153.92,281.78999999999996,-1.2349999999999999,0.0,531.25,531.25,11.116636164297859,3.975506060553801,5.121516431249201,64.5407785907699,0.989203668218057,69.82120021884471,0.10104166666666667,60,0.0454495,0.004192988949822469,-1.0161856055190985e-06,33.81466666666667,0.03138293945583923,-5.1041680512608295e-05,68.96866666666668,1.3760444114279984,4.240000000000009,-0.0022670145038559326
S096,7225.0,7254.984375,W,0.18092708333333338,112.30112602709298,-583.91,534.62,1118.53,2.865,0.0,531.25,531.25,2.878797122630195,1.3539999897423272,2.754993690441958,64.25678599456343,0.45738785388022235,66.34003316248794,0.16458333333333333,111,0.050242208333333344,0.0019945391317955866,2.5928194967500815e-06,33.74133333333334,0.014313940369057126,-1.3680559266646362e-05,68.99600000000001,1.3922753559072532,4.900000000000006,0.002082986676157411
S096,7255.0,7284.984375,W,-0.11069270833333261,108.59256890767469,-583.66,537.18,1120.84,-2.385,0.0,531.25,531.25,6.249445721949845,1.4021560778553386,3.4928193950430493,64.80037042503938,0.7722485206738878,69.31089380465383,0.10520833333333333,82,0.05067989166666667,0.00127812984340294,1.1492249211222114e-06,33.681666666666665,0.0257012753682687,-3.690973223462843e-05,86.159,8.138599531450934,27.090000000000003,0.014655594253362159
S096,7285.0,7314.984375,W,-0.14438541666666563,78.10206133334843,-406.28,375.4,781.68,-0.925,0.0,531.25,531.25,1.7882125133930686,1.04959017713132,1.0193180718486365,64.8136940826624,0.6919605184219797,67.446274915669,0.08645833333333333,67,0.05098947500000002,0.0010627390081177043,-8.701239339528888e-08,33.62733333333333,0.02264705033528239,-3.59722319803119e-05,116.38466666666666,8.345668231017946,27.67,0.015017920740538393
S096,7315.0,7344.984375,W,0.15957812499999963,102.92295625186884,-495.4,460.97,956.37,1.0950000000000002,0.0,531.25,531.25,5.013346336834864,1.178798529105895,1.7046043524125734,64.82786148963554,0.7835813171773839,70.51950084905593,0.096875,66,0.050775950000000014,0.0013616243782703075,1.0666096643363892e-06,33.55833333333333,0.0231060357674988,-3.190973087829181e-05,134.62333333333333,1.898461365304954,6.460000000000008,0.002800903537571487
S096,7345.0,7374.984375,W,-1.2246875000000002,73.31819765374767,-340.39,258.36,598.75,-0.315,0.0,531.25,531.25,5.231909556191378,1.265936175737808,1.4677079636857826,64.78044116751308,0.6000559493735853,67.68308503607086,0.10833333333333334,71,0.050850666666666676,0.001437843218929736,-2.0075960307064218e-08,33.51466666666666,0.01839081896551131,-1.5069448532293474e-05,131.86233333333334,2.388308583263245,7.890000000000015,-0.004291285886308019
S096,7375.0,7404.984375,W,2.4725260416666672,100.50096558939305,-483.62,566.45,1050.0700000000002,-0.125,0.0,531.25,531.25,5.763738117171298,3.4510239020067974,4.386477875362153,64.83844496761598,0.7288775718654221,69.46941773183363,0.08854166666666667,49,0.049879183333333334,0.00286080569648754,-3.4556532811559473e-06,33.467,0.020355179521028634,-2.038194997340249e-05,119.18466666666669,5.49438363745703,18.42,-0.009807710993845212
S096,7405.0,7434.984375,W,-0.7960781250000004,99.2116982186122,-471.78,511.88,983.66,-0.655,0.0,531.25,531.25,9.446625463036463,3.9292566930301493,6.289437294732733,64.87928958596451,1.3767683733620586,79.46697427233529,0.046875,15,0.04686897499999999,0.001564364255656271,1.344545286606252e-06,33.44733333333333,0.021123972690340408,2.44444510754264e-05,98.11733333333333,4.599124506057888,16.25,-0.008222363341569915
S096,7435.0,7464.984375,W,-0.13657291666666668,154.7595620552279,-1233.83,748.64,1982.4699999999998,-0.27,0.0,531.25,531.25,36.52103951203923,18.906461746977683,26.010016579321846,64.4660689924712,5.776380671142158,97.57561170702442,0.09166666666666666,40,0.03287554166666667,0.013676310670825321,-1.6281785015675188e-05,33.436666666666675,0.06497862896539364,-8.958335763437536e-05,83.56333333333333,3.5028962619841044,11.030000000000001,-0.005937571055113672
S096,7465.0,7494.984375,W,-0.23089583333333413,116.28345247277942,-391.31,682.39,1073.7,-1.22,0.0,531.25,531.25,1.0243217395143318,0.6325164345141995,0.5320857396839348,64.05901879063319,0.537574721598696,67.47592163134935,0.09895833333333333,61,0.03021790833333333,0.002081973222673759,3.248320976649572e-06,33.368,0.02468467810876444,4.055556655695679e-05,75.11833333333334,2.8810716563266685,9.63000000000001,-0.005151008341744885
S096,7495.0,7524.984375,W,-0.5525625000000004,89.05270727681123,-498.24,478.81,977.05,-1.04,17.03035396975881,531.25,538.4358723958334,2.4262883175748096,2.29058212973374,0.9584550420903076,64.11172971423066,0.7455901797231937,69.83552104767315,0.06666666666666667,27,0.031509441666666665,0.00452973733564437,-3.1398543673650076e-06,33.40733333333333,0.016110727964792224,1.9027782939393415e-05,69.50133333333333,0.2997858494918572,0.9499999999999886,1.4861115142447352e-05
S096,7525.0,7554.984375,W,0.423828125,181.1330003454576,-1369.97,1631.79,3001.76,-0.815,87.56415875951458,781.25,741.943359375,2.094459612336398,0.6188858927652892,0.5213497439872351,63.938437705255716,0.2907183249583807,66.007575322837,0.06770833333333333,39,0.032811799999999995,0.000994514534835967,2.0450179158577267e-07,33.41533333333333,0.013597385369581121,-3.472223164123185e-06,70.05566666666667,0.5647694711610706,1.9099999999999966,0.00023670145309826675
S096,7555.0,7584.984375,W,0.12103125000000015,29.324494377551055,-121.38,288.39,409.77,0.37,3.811479219899129,812.5,812.0279947916666,0.5056924227125504,0.14789832632777003,0.20810143343384788,63.794439009224746,0.22996702293118926,65.06150935845248,0.041666666666666664,31,0.034124400000000006,0.0012349190823693677,6.082605816679098e-07,33.40333333333332,0.012995725793077612,-3.6111120906872153e-06,70.82166666666666,0.2856231005285757,0.9100000000000108,-0.00035399315158234643
S096,7585.0,7614.984375,W,-0.05140624999999986,70.24302886453664,-401.43,482.84,884.27,-0.47,15.867588065078166,796.875,793.310546875,8.972991822589826,3.829871483692008,4.322421658405801,63.9511354830806,0.570251778897453,68.06614430096654,0.16875,104,0.034113641666666666,0.002205620252128009,-6.497273897915011e-07,33.40399999999999,0.01280624847486474,-5.486112599314072e-06,73.50066666666666,1.6950790214290565,5.230000000000004,0.002864792443791352
S096,7615.0,7644.984375,W,0.02201041666666662,15.427583023189065,-163.59,75.07,238.66,-0.84,59.16845748770144,796.875,795.8821614583334,0.3791380483705404,0.23429628307740794,0.46137132362543826,64.0897780458954,0.4061198852534477,64.78425734698207,0.21666666666666667,145,0.035479783333333334,0.0011762288197408217,1.0017224939568392e-06,33.39466666666666,0.015216949614017213,1.3194448023666396e-06,74.84500000000001,0.3729946380311652,1.2000000000000028,0.0006532987883297498
S096,7645.0,7674.984375,W,0.11965624999999977,92.13786839843233,-546.42,957.03,1503.4499999999998,-0.585,35.1797661014825,859.375,846.5576171875,9.066374650628306,3.5851836308153957,6.637079854352783,64.17004494107695,1.070007286656255,83.49251463454674,0.0375,21,0.033099783333333334,0.003035468201621548,-1.1285888478159843e-06,33.382999999999996,0.012948616399703705,-1.4236114972890768e-06,76.036,0.49864884103611945,1.6700000000000017,0.00037993065861834064
S096,7675.0,7704.984375,W,-0.1516875,3.551094779291369,-20.65,7.48,28.13,-0.305,39.4522353135986,796.875,815.1529947916666,0.31340840191176894,0.11987768650679836,0.24206145913796356,63.85648783974379,0.2479128327744901,65.03076195155643,0.16770833333333332,131,0.03545845,0.0012590999156143236,1.0639994205727583e-06,33.37133333333334,0.011175369742826562,-1.944444971909427e-06,77.081,0.4027186776564169,1.4500000000000028,0.000716076583137093
S096,7705.0,7734.984375,W,-0.001036458333333351,11.452379052275736,-56.82,81.28,138.1,-0.1,0.0,781.25,781.25,0.36738654475074195,0.5438896691629859,0.3108969299328423,63.9503365186309,0.31004164321852595,65.55150646628954,0.12604166666666666,86,0.03602414166666666,0.001040152843703215,-4.194076658549453e-08,33.38999999999999,0.019321835661585997,2.5972229267640874e-05,76.89200000000001,0.7009964336571186,2.0,-0.0006413890628768081
S096,7735.0,7764.984375,W,-0.0005885416666666606,5.028352521522536,-41.06,34.81,75.87,-0.215,171.31955165298723,453.125,590.7633463541666,0.032258047015004204,0.0,0.23040385738958447,63.973459073511776,0.21328971621969584,64.8459713474939,0.05625,50,0.03693151666666667,0.0019094585750212606,2.524709886260275e-07,33.422666666666665,0.012092238098146593,5.763890452445143e-06,75.90533333333333,0.9071116555063956,2.6599999999999966,-0.0015732643156641456
S096,7765.0,7794.984375,W,0.037234374999999896,41.99553635640025,-381.87,449.59,831.46,-0.715,154.92280794043276,750.0,667.5537109375,4.760532798546993,2.166842941547295,3.2188571988621466,64.27709709699943,0.5642078070819021,69.46941773183363,0.035416666666666666,16,0.03572539166666666,0.003637117414693109,3.717190461477446e-06,33.437333333333335,0.012092238098146593,1.090278073534804e-05,74.92799999999998,0.44614198039039915,1.2600000000000051,-0.0007590279836772977
S096,7795.0,7824.984375,W,-0.0480677083333333,6.897485378563619,-23.57,28.96,52.53,-1.29,171.30673881677302,375.0,532.91015625,0.48594726901577384,0.0,0.2304038573895845,64.4467165734007,0.26788910844504854,64.63745044476924,0.0,0,0.037326475,0.001100664458122911,-9.368427020515133e-08,33.485,0.028953986484304636,4.6354179241041535e-05,76.336,1.219312921279849,3.6999999999999886,0.0021905561497819414
S096,7825.0,7854.984375,W,-0.01419270833333344,13.40953652312215,-79.11,112.33,191.44,-0.79,0.0,718.75,718.75,0.4760769954067887,0.07902948640996106,0.09654963281764575,64.17175151388815,0.17034075591424447,64.81512169239521,0.009375,7,0.038714225,0.0009708382843579049,2.087741451752782e-07,33.6,0.03633180424916978,6.22222391010848e-05,78.14566666666668,0.28963981463573424,1.0100000000000051,0.0002903125787523253
S096,7855.0,7884.984375,W,-0.005057291666666604,17.947901084250798,-139.83,115.18,255.01000000000002,-1.14,101.85239321311137,406.25,443.0501302083333,0.46946704416343815,0.11987768650679835,0.17435396627423064,63.988956417968545,0.19071760796132298,64.8459713474939,0.190625,38,0.03913055000000001,0.0010439691554351583,3.5916936826425923e-07,33.717666666666666,0.0355605899213671,6.135418331005592e-05,78.67366666666666,0.2812173931715859,1.0100000000000051,-0.00043899317464007556
S096,7885.0,7914.984375,W,0.032364583333333335,36.56010214120596,-328.51,413.06,741.5699999999999,-0.635,144.90439123005808,406.25,491.0237630208333,17.715237349005438,5.079095633732173,17.149846349682214,64.28892317889463,1.185846321486123,76.94803441284255,0.030208333333333334,13,0.03888505,0.0027561881583387346,2.960291601641602e-07,33.841,0.05318834458788788,9.100696913166317e-05,78.98366666666668,1.212087684763588,3.8400000000000034,0.0020993408472604292
S096,7915.0,7944.984375,W,-0.015052083333333343,2.0056512599288028,-5.32,5.84,11.16,-0.28,77.76281708685045,687.5,720.263671875,0.0,0.0,0.10642856726723117,64.44106551096027,0.04691281407576016,64.87680633323437,0.011458333333333333,11,0.04092395000000001,0.0010569867300491529,3.3859774810051794e-07,34.022000000000006,0.04770744176750633,8.319446701238826e-05,81.86233333333332,0.0738323927705338,0.3499999999999943,-3.7847232488941208e-06
S096,7945.0,7974.984375,W,0.026687500000000013,4.3098077304187346,-30.7,28.66,59.36,-0.19,111.51178807248704,703.125,781.3802083333334,0.6486288623254955,0.5510367438343431,1.2392239500041502,64.53500219594598,0.17124515345134392,66.30987860040162,0.04895833333333333,28,0.041180150000000006,0.001117361994834262,8.968114411923398e-07,34.193,0.05209926423024951,9.149308037464247e-05,80.311,1.4574277569288523,4.579999999999998,-0.0025018409564455694
S096,7975.0,8004.984375,W,-0.026989583333333338,3.9919745401315074,-18.52,15.87,34.39,-0.32,88.15332219128842,781.25,760.1318359375,0.4088379110356572,0.3868932862309135,0.4694855340334424,64.56942123616842,0.26466877332807026,66.05300901548695,0.12395833333333334,50,0.042450466666666666,0.0010497738719468224,2.0431429153490979e-07,34.37966666666667,0.06263563061247267,0.00011010419653434022,75.76333333333334,0.487170971585496,1.75,-0.0008675696797877828
S096,8005.0,8034.984375,W,-0.006932291666666672,2.612149660640111,-6.23,9.36,15.59,-0.43,197.31653729449118,593.75,679.7281901041666,0.46639570816766984,0.40155405579102577,0.0,64.52847572088521,0.3976340098575437,65.12296062065974,0.31979166666666664,157,0.04250383333333333,0.0009919895272744684,1.7342409218318564e-07,34.52033333333334,0.0219823161250623,3.357639799706799e-05,74.77333333333334,0.4874856123233011,1.3700000000000045,-0.0008040279958843345
S096,8035.0,8064.984375,W,0.0008802083333339872,109.94662910839125,-520.77,641.82,1162.5900000000001,0.305,31.354491062112604,953.125,948.8525390625,39.32960002531226,30.675582359290217,16.737938754518133,64.36613180179054,2.722788437343061,85.56868586112562,0.058333333333333334,12,0.040785133333333334,0.005234347006286669,-4.612327640062857e-08,34.59266666666667,0.019136933459209936,8.611113447026725e-06,73.36999999999999,0.225846555578488,0.769999999999996,-0.00035208342884207757
S096,8065.0,8094.984375,W,0.0704947916666665,82.3200132373082,-838.78,406.72,1245.5,-2.36,61.08104828519615,843.75,839.9251302083334,13.422203462544092,4.838071940780404,14.688487555451946,64.05842329595302,2.0043360920356177,83.64209466530593,0.05416666666666667,22,0.04434994166666668,0.004470954656252273,1.8849577595914055e-06,34.55233333333334,0.03537261966863989,-5.788196014593234e-05,73.87633333333333,0.20171734900322377,0.7199999999999989,0.0003505209284182174
S096,8095.0,8124.984375,W,-0.21450520833333328,142.33722038212406,-891.86,640.61,1532.47,3.475,20.256079869097125,812.5,801.5543619791666,4.259278576596693,14.536734478745753,24.196909753587626,63.908974366978036,1.846244935252188,91.40021881811882,0.04583333333333333,16,0.04391245,0.0032368684553901786,-3.572447149643865e-06,34.48666666666668,0.010749676997732199,1.2847225707256381e-05,75.073,0.572608941599762,1.8599999999999994,0.0004906598553222258
S096,8125.0,8154.984375,W,0.26288020833333287,103.93745220978167,-618.4,466.8,1085.2,3.715,9.802664133851254,812.5,814.6484375,1.6650825805346714,1.2670435294635916,9.220085296420196,63.89974459447514,0.7764335735775602,69.6419413859206,0.058333333333333334,28,0.04492634166666667,0.0019435280226769447,-1.0819295469644035e-07,34.476666666666674,0.015563490039905052,-2.1458339154280293e-05,70.81966666666668,1.3514769287297839,4.3700000000000045,-0.0023364242449067495
S096,8155.0,8184.984375,W,-0.07240104166666672,51.61758060704301,-294.41,480.89,775.3,2.565,34.06649687607141,859.375,851.9612630208334,1.7183850622669594,0.9101067359564665,2.0949001815917945,64.11606441807923,0.494840246996713,66.58828725834597,0.14270833333333333,92,0.04246114166666667,0.0011295165728150648,5.593111326256336e-07,34.42733333333332,0.02462158041682766,-3.80555658787915e-05,67.10033333333334,1.3936390812864314,4.079999999999998,-0.002345452025133469
S096,8185.0,8214.984375,W,-0.03735937499999999,28.997122349252457,-163.31,362.26,525.5699999999999,-0.815,57.1597435765721,812.5,807.3893229166666,1.6674529395324942,0.9803134906398848,4.367707712258482,63.934536759592355,0.5133721875993246,66.87301398920195,0.16145833333333334,94,0.04291994166666666,0.0017023525648145145,-4.3286014346249515e-07,34.37066666666667,0.023371397523942856,-3.375000915527473e-05,68.747,1.2828020112238676,3.769999999999996,0.0022551047784029883
S096,8215.0,8244.984375,W,0.006124999999999699,59.0312734884813,-287.39,274.59,561.98,-0.08499999999999999,2.060767991032348,828.125,828.4016927083334,7.331722642124541,2.1370156615008695,4.432939631445669,64.78915471622953,1.754997005640694,79.31582439841371,0.036458333333333336,11,0.03482880833333334,0.0019584963675220897,-8.781469396015105e-09,34.31466666666667,0.02202019275321792,-3.472223164123017e-05,73.04633333333335,2.1384472300142345,5.299999999999997,0.003739619069992151
S096,8245.0,8274.984375,W,-0.09242187499999985,45.7434052352898,-270.77,258.07,528.8399999999999,0.74,0.0,828.125,828.125,9.02218998411001,1.062589865480667,4.8798692518274045,64.14209042984449,0.6971264516941887,68.5054742338158,0.121875,57,0.035031575,0.0014380793421696165,4.024321838194942e-07,34.27466666666666,0.00845905169363133,-3.2638897742750055e-06,75.26600000000002,0.3225275182058112,1.3499999999999943,0.00021458339154280308
S096,8275.0,8304.984375,W,0.08275520833333302,77.89463031585838,-364.2,320.04,684.24,1.335,14.9456253688138,859.375,848.3072916666666,2.3484422936485414,1.2342602794791704,5.169811605845087,64.02272517944229,0.8459672556342412,70.2353187506115,0.09166666666666666,60,0.037027575,0.001432161755659953,-2.321257140097964e-07,34.26466666666667,0.014544949486181577,-5.9722238422919156e-06,75.72133333333335,1.0860225084632862,3.25,-0.001079514181725853
S096,8305.0,8334.984375,W,-0.2989114583333335,24.426744208288593,-93.64,173.2,266.84,-0.38,62.931667649018976,734.375,767.3421223958334,2.2532381694494457,0.7680693689736334,3.362548404236485,64.14508361956013,0.46872782398057977,66.12866246946176,0.18125,114,0.03849005000000001,0.0012900418394377756,1.2020498052435455e-06,34.241333333333344,0.013349989596335387,-5.486112599314787e-06,82.80833333333334,3.7473466909564457,11.75,0.0067450365519304886
S096,8335.0,8364.984375,W,0.33336458333333335,22.90440458533567,-83.54,137.45,220.99,0.625,48.649052466452204,687.5,715.4378255208334,0.48818394863855696,0.27099154033023903,0.5283252825359266,64.03069265707957,0.32847808848777305,65.71149062378664,0.05625,44,0.039194599999999996,0.001089477760213579,3.941967215160373e-07,34.232333333333344,0.017829438827089004,-1.2951392402180767e-05,95.99566666666666,4.653877009786811,13.960000000000008,0.008347328653246701
S096,8365.0,8394.984375,W,0.17632812500000006,46.854835592971796,-282.12,402.58,684.7,2.0599999999999996,110.52185871872231,921.875,875.4638671875,17.66994979197852,6.513655444392488,17.59115532475688,64.23418942933083,1.9685421907704514,79.58643100428615,0.08020833333333334,24,0.03673953333333334,0.0030935073754918088,-2.0753703546469056e-06,34.215333333333334,0.013349989596332455,-9.16666915328393e-06,105.81133333333334,1.0677725517272971,3.8299999999999983,0.0011291669729728124
S096,8395.0,8424.984375,W,3.566802083333333,211.3475841948085,-778.37,766.03,1544.4,9.445,0.0,953.125,953.125,2.271631167184106,2.2160400116724728,3.7703267097512767,63.5389682149489,0.42639165843256704,65.1766829472013,0.13645833333333332,91,0.035074249999999994,0.0014240589129316235,-1.1494339055539018e-06,34.22533333333333,0.01606929439092484,1.3680559266645447e-05,98.38233333333332,5.334155780335711,16.53,-0.00940587060706125
S096,8425.0,8454.984375,W,-3.3607760416666674,224.90132886161584,-1115.34,784.42,1899.7599999999998,4.52,0.0,953.125,953.125,0.5163935770213345,0.4135705279601319,0.7541436460574927,63.71412236191341,0.33414565355982134,64.64518543557594,0.0625,47,0.035479775000000005,0.0011878040765947037,1.3782577523485668e-07,34.266666666666666,0.01468181036369724,1.4652781752599261e-05,75.365,7.56390055901495,22.950000000000003,-0.013558649511352407
S096,8455.0,8484.984375,W,-0.39456250000000104,121.9984361367333,-699.93,499.89,1199.82,4.57,0.0,953.125,953.125,8.039950094748205,3.128285599162991,12.663559060611563,63.71671910044802,1.0264820543661748,75.17313349861105,0.05416666666666667,26,0.036707341666666664,0.0014463592655113574,-3.2553676365472116e-07,34.273999999999994,0.010832051206180174,2.7777785312979752e-06,61.349,1.5007272681381298,5.089999999999996,-0.0026081604297310194
S096,8485.0,8514.984375,W,0.5735156250000003,126.80973864738253,-614.05,664.66,1278.71,-5.15,0.0,953.125,953.125,2.260161275895053,1.357769246370269,5.789356553672918,63.69609434913779,0.9828010984278042,70.35623639735144,0.078125,44,0.036590058333333335,0.002634076309625549,3.958305978273106e-06,34.309333333333335,0.028276413413930352,4.6180568082835176e-05,58.67366666666667,0.72129274377483,2.1600000000000037,0.0007076738030799179
S096,8515.0,8544.984375,W,0.48538020833333206,169.59443148367848,-553.18,640.12,1193.3,-1.4449999999999998,0.0,953.125,953.125,1.4125549245712732,0.8187254820332365,3.8227308935334436,63.53515018056923,0.4428880963029412,65.40642170307133,0.21875,97,0.041404325000000006,0.0009944952837369326,-1.6540694591117248e-07,34.37833333333333,0.020179747823553196,-9.340280311489729e-06,55.78733333333333,1.2051913633204576,3.980000000000004,-0.0020395838866058722
S096,8545.0,8574.984375,W,-1.0817708333333338,166.47338966373871,-893.02,1445.75,2338.77,-2.02,0.0,953.125,953.125,1.7344234853082705,1.4631138164649238,1.9645488133234448,63.54081201791828,0.6394983217891911,68.99275324264136,0.103125,59,0.04200210833333333,0.001156362823654651,-6.768914596602271e-07,34.327000000000005,0.018645821694595843,-2.7881952007908852e-05,55.407,0.6601875996008001,2.539999999999999,0.0010162155534438884
S096,8575.0,8604.984375,W,0.08638020833333335,32.53089189958561,-369.14,111.43,480.57,-0.07,0.0,953.125,953.125,1.4281303184924063,0.8290279406563381,2.1932996035748666,63.602554101476976,0.5723738015438684,67.54257916307313,0.11770833333333333,73,0.04173525,0.000972538784573655,-3.19694097139241e-07,34.31466666666667,0.02156128217172752,2.4027784295731176e-05,61.07266666666668,2.5084615914052883,8.199999999999996,0.0045143762246029236
S096,8605.0,8634.984375,W,-0.15065625000000005,14.805406592221727,-70.74,52.49,123.22999999999999,0.965,51.75882590399401,843.75,880.56640625,0.9405967373014974,0.7253703256785461,2.89161788503522,63.620192246025,0.6513551863779569,71.9027120489902,0.040625,24,0.04194875,0.0010491955668511003,-4.837110687150256e-07,34.339666666666666,0.012775845264490989,-4.826390198133638e-06,68.91233333333334,1.9124777703864209,6.11999999999999,0.003426632873978098
S096,8635.0,8664.984375,W,0.1337552083333333,14.221189725212644,-52.38,42.67,95.05000000000001,0.86,55.00882164693564,843.75,850.78125,0.6832245530794071,0.5201151298163599,0.6048272251000464,63.5126173207466,0.3866838524323422,65.3299318842443,0.18958333333333333,105,0.04194875,0.0011124558811476531,7.322384798824008e-07,34.294000000000004,0.022150996967780976,-3.402778700840531e-05,70.63433333333333,0.4974044855268421,1.5499999999999972,-0.0007174654724027437
S096,8665.0,8694.984375,W,-0.08794270833333334,13.51480525690749,-54.11,37.27,91.38,0.48,80.29055282738727,828.125,810.0016276041666,0.4814247067443557,0.33029868637677356,0.5583168141212976,63.529331099806704,0.2797439504257354,64.88451279003334,0.08541666666666667,54,0.042076850000000006,0.0009874230742189499,3.7362510135229536e-07,34.20866666666666,0.02704728370013418,-4.506945667031636e-05,69.45033333333335,0.4588498907292254,1.5799999999999983,-0.0007467015914446571
S096,8695.0,8724.984375,W,0.34184375000000045,65.71744329606425,-416.13,346.16,762.29,0.895,43.82208985277946,734.375,751.8717447916666,24.415801299191415,24.909662281062687,29.917297009811296,64.70538088393224,5.013953164113552,107.04671877269288,0.071875,27,0.03716650833333334,0.005094056980109,-1.724692091116561e-06,34.14099999999999,0.016603212540548164,-2.329861743126277e-05,69.87633333333333,0.5494875390357418,1.9300000000000068,0.0009753822090338029
S096,8725.0,8754.984375,W,-0.2760468749999997,70.6048018702214,-407.21,341.2,748.41,3.435,0.0,734.375,734.375,0.7372697086303552,0.8487633978651269,0.46362358826662625,63.898552054205624,0.4306530420679643,65.19969325081216,0.03958333333333333,27,0.038084400000000004,0.0010554762858539274,7.81165576488058e-07,34.08933333333334,0.021592179654269534,-3.506945395764327e-05,68.96466666666666,1.2215693003491677,3.519999999999996,-0.0021269450214152067
S096,8755.0,8784.984375,W,0.037869791666666666,25.677771314523433,-321.2,201.99,523.19,0.12,0.0,734.375,734.375,0.6698418851054827,0.28840437467787017,0.5018098753927296,63.67967035311878,0.5037364239303856,65.49809157525127,0.37395833333333334,217,0.038885025000000004,0.0011068590354579928,4.2727811069827143e-07,33.99733333333334,0.037232005347847666,-6.326390605032053e-05,65.621,1.9865604278081586,5.650000000000006,-0.003448160657595665
S096,8785.0,8814.984375,W,-0.043510416666666635,5.8740667760483305,-28.37,30.07,58.44,-0.33,0.0,734.375,734.375,0.4779468168344907,0.2900232719350102,0.41339864235384227,63.61154460014712,0.4127371037686214,64.41273166075166,0.21875,150,0.039440125000000006,0.0010313950549498466,-9.980015728085872e-08,33.891,0.034481879299132746,-5.746529336623526e-05,64.66633333333333,1.5788698137873463,4.519999999999996,0.0027337160193457092
S096,8815.0,8844.984375,W,-0.05810416666666667,10.624845143458924,-68.78,110.61,179.39,-0.045,18.42050318508028,765.625,757.373046875,0.6230098522829849,0.17151477402350312,0.36985914877228,63.60196496297354,0.36721181265650205,64.52906321960671,0.16354166666666667,125,0.03973902500000001,0.001115064941774692,5.712794518444687e-07,33.778,0.022861904265976837,-3.55555652006203e-05,66.83766666666666,1.0435761698228951,2.9000000000000057,0.0017686463131093527
S096,8845.0,8874.984375,W,0.044343749999999724,48.50454162462696,-424.8,296.17,720.97,0.495,0.0,765.625,765.625,13.754089669581514,18.619411447166872,8.631578610286507,64.49300881369348,4.005691470502421,125.8292493818508,0.06979166666666667,21,0.03425271666666666,0.004666830530783772,-5.707355280858093e-06,33.71633333333333,0.0162241246981828,-1.531250415378063e-05,69.56366666666666,0.6409341273138418,2.6100000000000136,0.0009477433126473838
S096,8875.0,8904.984375,W,-0.005562499999999678,60.287574600792276,-376.14,301.29,677.4300000000001,1.58,30.96221227976345,859.375,852.6204427083334,23.68027924244138,32.73214526017709,13.964294591475074,64.9216540613036,8.71024783101811,131.88252348207476,0.09375,34,0.0303459,0.00632880150502447,-4.98034640308876e-06,33.721666666666664,0.014161763857497496,1.142361420996353e-05,75.22366666666667,2.642717645825137,9.02000000000001,0.004729827671936759
S096,8905.0,8934.984375,W,-0.009270833333333364,2.8376896393279702,-11.43,10.05,21.48,0.03,106.9589334983022,750.0,714.8518880208334,0.6949220579796461,0.4141997283081624,0.41172986820851365,63.6748975835949,0.36674385070908966,65.86349520030045,0.12395833333333334,70,0.03473277500000001,0.001604556986951538,2.1177347324584226e-06,33.74,0.013416407864999777,9.930558249392352e-06,88.75433333333334,4.490127454266255,12.450000000000003,0.0077613562720693025
S096,8935.0,8964.984375,W,0.012348958333333293,15.226880985102566,-78.39,87.63,166.01999999999998,-0.10500000000000001,52.31410463364342,781.25,791.40625,6.169084196733652,3.1728952929352325,1.8955986576365087,63.593335935921075,1.2817304218997552,75.61084578286372,0.06145833333333333,31,0.03858623333333334,0.0034153216289083063,2.611016333283509e-06,33.734,0.014966629547096207,-8.888891300155155e-06,92.00333333333334,1.6192103699711844,5.299999999999997,-0.0026765285038326007
S096,8965.0,8994.984375,W,-0.14982812500000003,27.260272215672064,-228.97,179.81,408.78,0.135,90.63045879892296,750.0,749.169921875,17.341162970219795,4.5912956406359,7.513075335590871,63.535753571817935,2.9680060188436803,95.82275303913993,0.04583333333333333,15,0.035853675,0.004316770170243991,-5.326418545577938e-07,33.751333333333335,0.014544949486182552,7.500002034506808e-06,79.167,4.808164687972603,13.63000000000001,-0.008380661995622287
S096,8995.0,9024.984375,W,-0.03773437499999994,33.84940458182428,-207.6,173.91,381.51,0.545,32.773473025012095,843.75,820.9228515625,23.358192463564695,20.21864814073604,8.62492294399959,63.50528195625943,3.9840825362925627,83.58229477586745,0.09479166666666666,25,0.03413510833333334,0.004527458120174118,-7.088194197101293e-07,33.75,0.012649110640674746,-2.638889604733501e-06,73.71733333333333,0.3459569658530127,1.2199999999999989,-0.0004388890079451519
S096,9025.0,9054.984375,W,0.1899062499999999,41.343764836121835,-275.2,146.21,421.40999999999997,-0.15,0.0,843.75,843.75,26.814484839769385,10.742565208006136,11.84952951919986,63.95545126785119,7.110822371018583,113.81124724736128,0.10625,47,0.036611433333333325,0.006515622113727046,1.964640289887231e-06,33.776666666666664,0.013984117975601043,1.7222226894049107e-05,73.30966666666667,0.24553999447928807,1.0799999999999983,4.718751280043109e-05
S096,9055.0,9084.984375,W,-0.028124999999999994,2.3555970193792346,-5.77,6.23,12.0,-0.15,107.45725107011616,750.0,757.080078125,0.44492581895749767,0.1462753717308556,0.07880950133074056,62.92230826561081,0.2883097768847636,63.671029518926424,0.014583333333333334,9,0.040134,0.0012951551258440044,1.4111019452859006e-06,33.81100000000001,0.013747727084867455,1.8020838221798158e-05,71.828,0.5110603356421503,2.1200000000000045,0.0006240279470561927
S096,9085.0,9114.984375,W,0.023718749999999986,2.1721612758721296,-4.95,5.97,10.92,-0.11,93.67111702072263,750.0,749.462890625,0.2304038573895845,0.05581428468591173,0.0,63.0429990439288,0.14455638067466015,63.079315151640635,0.0,0,0.04237575,0.0010272434412056377,8.484403343208377e-07,33.874,0.03072458299147288,5.069445819619351e-05,74.46866666666666,0.6774202700113287,2.719999999999999,0.0011938197682887816
S096,9115.0,9144.984375,W,-0.008500000000000004,2.2394944881602186,-6.38,6.53,12.91,-0.15,89.9413057396431,828.125,808.3251953125,0.20912350152216005,0.1821904480893551,0.08507936450096985,63.02743808941797,0.17189498127625527,63.079315151640635,0.0,0,0.04389119166666666,0.0010932345836692856,1.0466215946781666e-06,33.99366666666666,0.046222889952441976,8.031252178616614e-05,76.83466666666666,0.31769727029918815,1.0100000000000051,0.000500972358119671
S096,9145.0,9174.984375,W,-0.013822916666666669,1.9331526414921714,-3.74,4.62,8.36,-0.305,87.97285740028187,843.75,819.287109375,0.1561249499599599,0.34327460814517324,0.07198059875565237,62.98739921857494,0.2236955070333895,63.608175575157006,0.005208333333333333,5,0.04540653333333333,0.0009331491300370413,1.1616669817890031e-07,34.169333333333334,0.05685849882725509,9.694447074231581e-05,77.21833333333332,0.18660266760032154,0.5300000000000011,0.00032239592078882665
S096,9175.0,9204.984375,W,-0.001177083333333336,1.8792675794862634,-4.59,4.47,9.059999999999999,-0.24,94.62133866582158,843.75,838.3870442708334,0.1529193630552463,0.47729594061814057,0.1496378730654628,62.87265402120905,0.30652840436276385,63.608175575157006,0.019791666666666666,16,0.0470077,0.0011528999999999999,8.5622419059901e-07,34.38466666666667,0.062702117632146,0.00011138891910506599,77.46700000000001,0.23893025481647795,0.6200000000000045,-0.000369895933674028
S096,9205.0,9234.984375,N1,-0.007265625000000003,1.8992954758129026,-10.85,5.36,16.21,-0.24,75.39077214131686,859.375,825.0569661458334,0.12401959270615269,0.49465458627432357,0.20219874281810518,62.759296028984394,0.3258505991599816,63.608175575157006,0.027083333333333334,26,0.048662325,0.0010653093773054854,1.3149157212770502e-07,34.574333333333335,0.05011209656582184,8.809030167380187e-05,77.44699999999999,0.20845702994462126,0.7199999999999989,0.0003692014890412002
S096,9235.0,9264.984375,W,0.018333333333333365,14.00125024675376,-109.98,110.7,220.68,-0.15,128.55800637128408,1031.25,937.3779296875,3.406781781883747,1.5011049171267885,2.3391890807618685,62.97400535628131,1.1887771253355008,74.45804187594514,0.03854166666666667,14,0.04917475833333335,0.0019163452933289163,1.93447947441392e-06,34.66266666666665,0.015040685563571712,1.8472227233134312e-05,77.53799999999998,0.20756364485782902,0.769999999999996,-0.000194930608433868
S096,9265.0,9294.984375,W,-0.004770833333333327,1.6997013982802898,-4.3,4.07,8.370000000000001,-0.165,85.22645465381142,812.5,818.1396484375,0.2179449471770337,0.03225804701500421,0.1356408400888169,63.043182115983086,0.1439804072040383,63.702433234531945,0.0010416666666666667,1,0.05135236666666667,0.0011923787564733317,9.253079767002978e-07,34.693666666666665,0.02845854685132236,3.0868063929053156e-05,75.484,0.9385080358384432,3.019999999999996,-0.001690139347368529
S096,9295.0,9324.984375,W,0.054395833333333345,12.677320068301082,-76.61,84.81,161.42000000000002,0.01,48.769055389104736,968.75,940.0797526041666,9.308055193919703,19.295123880285285,5.560162488726536,62.99370820988857,2.8346841624336285,100.12991560967181,0.042708333333333334,14,0.04021925,0.004565880333608551,-4.896186224008848e-06,34.73933333333333,0.02707192067233003,-3.5208342884208317e-05,75.095,1.0998962072244207,2.719999999999999,0.0018622574496141076
S096,9325.0,9354.984375,W,0.107203125,30.923365046049565,-104.56,201.56,306.12,-0.315,25.676134103558105,890.625,888.0452473958334,12.932394826075331,13.381335467317486,7.86400660136987,63.739588957830556,6.895817535782465,104.92378186092989,0.07916666666666666,19,0.03971760833333334,0.005852179940409433,7.066756474272047e-06,34.657999999999994,0.01989974874213158,-3.0486119380998836e-05,74.71499999999999,0.8757653795395203,2.719999999999999,-0.0015713545929238804
S096,9355.0,9384.984375,W,-0.14850520833333333,12.814983495281915,-73.81,131.61,205.42000000000002,-0.24,80.9593769915225,875.0,860.4410807291666,0.4827481640882289,0.08507936450096985,0.3630921887069453,63.00293366760829,0.2683578611064133,64.03124237432849,0.1625,107,0.04661273333333334,0.001125215488497894,9.137450395358714e-07,34.626999999999995,0.020680103158994087,3.052084161264078e-05,70.45533333333333,1.8139528353540215,4.960000000000008,-0.0031509036325150933
S096,9385.0,9414.984375,W,0.00016145833333331973,1.9176898061681422,-4.24,4.88,9.120000000000001,-0.215,98.57183873581788,812.5,796.7854817708334,0.4924682290231749,0.1428261375083551,0.2732186624299299,62.94868116165022,0.2541292497356345,64.03124237432849,0.096875,79,0.0479898,0.001070910551820273,2.1461203738390772e-07,34.733333333333334,0.033796778281698754,5.611112633223081e-05,70.49733333333333,0.8905913141777696,2.8999999999999915,0.0016000698784911756
S096,9415.0,9444.984375,W,-0.06297916666666663,15.366849014178735,-95.69,136.57,232.26,-0.475,68.57429748007186,875.0,869.2220052083334,11.037089460088652,1.9276944413923593,8.177279456246776,63.001085617408926,0.8150169903611025,70.24243731534378,0.04479166666666667,16,0.047744299999999996,0.0016698306231471504,-1.7149184339513981e-06,34.870666666666665,0.05131168374638224,8.840280175857012e-05,73.261,0.5468659189722225,1.8999999999999915,0.0007082988032494575
S096,9445.0,9474.984375,W,0.06029687500000001,2.1888389629242337,-6.43,10.56,16.990000000000002,0.08499999999999999,54.03041576013332,875.0,840.9016927083334,0.31567140747935973,0.5868791045294877,0.5361255035488944,62.91982837768934,0.31189782854576553,64.03905058634146,0.14166666666666666,75,0.04818195,0.0009526503017896977,4.025365675283655e-07,35.01933333333333,0.02943165340619204,4.59722346929886e-05,70.98100000000001,0.5874711340426314,2.1000000000000085,-0.0007801738227468061
S096,9475.0,9504.984375,W,-0.0007135416666666728,2.25065038313557,-4.86,5.09,9.95,-0.07500000000000001,66.65022915613709,828.125,831.5022786458334,0.46679685683984157,0.18885792995882733,0.32903478370666056,62.890569668969604,0.3418650501002906,63.702433234531945,0.07604166666666666,51,0.050124800000000004,0.0009633559103467429,-1.768047354613541e-07,35.120666666666665,0.02815828277592226,4.416667864764256e-05,70.77466666666666,0.21606686207951478,0.8999999999999915,0.00025416673561380257
S096,9505.0,9534.984375,W,0.009666666666666662,2.28306950118086,-6.95,5.16,12.11,0.155,62.11906480144043,828.125,827.4739583333334,0.4915254034352875,0.1428261375083551,0.3476343040826092,62.841700602516966,0.3606111251993648,64.03905058634146,0.07708333333333334,60,0.050647875000000016,0.0011203665513460322,8.9097354898371e-07,35.234,0.04278629063925472,7.402779785910527e-05,72.96300000000001,0.4004676433038423,1.480000000000004,0.0004543404010254999
S096,9535.0,9564.984375,W,-0.030427083333333334,2.2522677980796364,-4.67,4.48,9.15,0.05,77.85553938142317,828.125,802.4169921875,0.496208497774765,0.21578094200034337,0.28256636388643286,62.73551975693886,0.3685252050192409,64.03905058634146,0.04583333333333333,39,0.05125634166666668,0.0010325340147410269,2.4517736685583966e-07,35.35466666666667,0.03343982987729077,5.375001458062351e-05,72.68133333333334,0.12582350955030555,0.38000000000000966,-0.00021194450193807302
S096,9565.0,9594.984375,W,0.0061093749999999985,2.1889279906963077,-5.08,4.67,9.75,0.1,68.04508244338008,796.875,805.0699869791666,0.499995659703384,0.24762544169571912,0.30412207150254644,62.79559708722017,0.3797847541767827,64.03905058634146,0.06458333333333334,45,0.05189671666666667,0.0011089446949189515,5.502097846706223e-07,35.45066666666666,0.02337139752394503,3.520834288420853e-05,73.18000000000002,0.35529330606321907,1.0200000000000102,0.0006295140596555036
S096,9595.0,9624.984375,W,0.013322916666666691,2.1952566763117916,-4.54,4.32,8.86,0.03,87.74822954177188,781.25,783.4391276041666,0.494022428359505,0.23825719937822562,0.32349410736518824,62.74265192353616,0.39163707942897935,64.03905058634146,0.078125,60,0.052312916666666674,0.0011453583251784358,5.455413806264587e-07,35.52466666666667,0.02918142483765134,4.708334610550661e-05,74.12966666666667,0.32151187985654406,0.9000000000000057,0.0005693404322212542
S096,9625.0,9654.984375,N1,0.007968750000000002,2.4558754250144905,-14.44,8.61,23.049999999999997,0.095,66.6972328685982,812.5,795.6705729166666,0.48594726901577384,0.24578919095210205,0.3621031712056969,62.72970924156372,0.3849179161947032,64.03905058634146,0.08333333333333333,66,0.05260104166666667,0.0010679526783822794,-3.6301811062774205e-07,35.60533333333334,0.026170381901853876,3.965278853428494e-05,74.24466666666667,0.17811481939717863,0.45000000000000284,-0.0003100695285561904
S096,9655.0,9684.984375,N1,-0.011635416666666657,1.9645272789093546,-4.71,4.29,9.0,0.12,70.92302664879062,781.25,789.55078125,0.46393241957267395,0.28256636388643286,0.382617935250035,62.704700326776454,0.38151923825665873,64.03905058634146,0.08541666666666667,67,0.053454825000000004,0.001080649131020332,8.347608601239306e-07,35.65799999999999,0.01248999599679598,1.0347225029085529e-05,74.12566666666666,0.13055479905218287,0.5600000000000023,9.760419314350099e-05
S096,9685.0,9714.984375,W,-0.016171875000000016,3.4457606776359726,-23.71,15.88,39.59,0.04,76.9040708185335,812.5,792.6025390625,0.8053632882380887,0.5930002576353197,0.7241486560380173,63.24197833881181,0.5343305405736593,67.07458535093602,0.013541666666666667,6,0.054340508333333336,0.0009005253651418659,3.5210968752975444e-07,35.638333333333335,0.02684316590038235,-4.302084500348107e-05,74.77166666666668,0.12966838045139817,0.5,-0.00011753475410556501
S096,9715.0,9744.984375,W,0.017104166666666667,1.8454767760164235,-3.91,4.0,7.91,-0.11,97.7282988206763,812.5,808.2763671875,0.3745309566644658,0.48465605645194976,0.19249988726547926,63.297840816833606,0.40183694055373365,63.671029518926424,0.0,0,0.05506634166666668,0.001052354356477524,7.385954694540669e-07,35.580000000000005,0.011254628677423884,3.819445480536604e-06,73.73333333333333,0.344570586221298,1.3699999999999903,-0.0005930557164322145
S096,9745.0,9774.984375,W,-0.021114583333333343,2.014416041157005,-4.1,4.43,8.53,-0.025,53.73989118593979,828.125,835.2213541666666,0.3,0.4990224819584785,0.24206145913796356,63.2762164223678,0.3894679315057598,63.671029518926424,0.45208333333333334,180,0.055973700000000015,0.0009442398053460786,9.451825480638345e-09,35.573333333333345,0.012736648783030524,3.4027787008411076e-06,72.35866666666666,0.2702558458613303,0.9000000000000057,-0.00047645846258096656
S096,9775.0,9804.984375,N1,0.017354166666666674,2.1205937846664487,-4.78,4.63,9.41,-0.07500000000000001,79.41784414116982,843.75,860.5143229166666,0.2943625410196677,0.4992083576774332,0.22219509383022437,63.24345230682809,0.38744717570460446,63.671029518926424,0.409375,188,0.055941683333333346,0.0010081235620641397,2.004162870052863e-07,35.59333333333334,0.020055478608655163,2.9652785821610284e-05,71.702,0.16353185214711788,0.46999999999999886,-0.0002761806304743476
S096,9805.0,9834.984375,N1,-0.015916666666666676,1.9432441714108453,-4.98,4.64,9.620000000000001,0.005,72.70902906593241,828.125,840.1936848958334,0.2221950938302244,0.4965855638479859,0.20453835214941965,63.2558833943202,0.36154668324646366,63.671029518926424,0.4010416666666667,171,0.05560008333333334,0.001052370329172304,-3.372084248069729e-07,35.643333333333324,0.014452988925784628,6.805557401680365e-06,71.40366666666665,0.19168521649366194,0.5700000000000074,-0.0001820486604949715
S096,9835.0,9864.984375,W,0.01647916666666667,1.93511635620858,-4.72,4.23,8.95,0.0,59.01217728199561,828.125,828.1331380208334,0.20219874281810515,0.478890318862263,0.22219509383022437,63.203498624709034,0.3476874981979415,63.671029518926424,0.3260416666666667,154,0.055738850000000006,0.0009497750931141542,1.6512895104409503e-07,35.641,0.015132745950420001,-1.9270838560880477e-05,72.49233333333332,0.30057371068600747,1.0300000000000011,0.0005121876389397896
S096,9865.0,9894.984375,W,0.015828125000000002,2.0875055243541234,-4.85,4.44,9.29,0.16,81.92358267762975,859.375,855.6722005208334,0.16827350421923892,0.4732137007708275,0.2716154572133593,63.191863898002175,0.34581367290890874,63.671029518926424,0.3072916666666667,144,0.05653947500000001,0.0009963269791464055,2.6993301593235035e-07,35.62133333333334,0.013349989596334324,-1.0069447175956728e-05,72.66799999999999,0.10743680312940512,0.4399999999999977,-5.1597236218869065e-05
S096,9895.0,9924.984375,W,-0.009744791666666664,1.9759037719784602,-5.16,10.11,15.27,-0.11,81.65769707799465,796.875,811.2711588541666,0.16424014852918542,0.5083408042483791,0.7558617862615861,63.17149636969712,0.33160681538781606,64.389440128021,0.16145833333333334,94,0.05637935000000001,0.0011691927460859488,-4.675873664245237e-07,35.60266666666667,0.018961950204437097,-2.7152785143441778e-05,72.94066666666667,0.45878777470876747,1.3900000000000006,0.0008216668895580767
S096,9925.0,9954.984375,N1,-0.01229166666666667,2.25368218569017,-5.66,4.43,10.09,0.05,99.55753348671477,812.5,805.078125,0.17116012950028855,0.38522517765587433,0.40232478717449166,63.27415953979209,0.3120916525727733,63.671029518926424,0.17395833333333333,123,0.055963025000000007,0.001030068359078659,-2.8939265662778246e-07,35.57,0.013662601021281601,5.972223842292556e-06,73.857,0.11793077065238958,0.3499999999999943,0.0001880903288005431
S096,9955.0,9984.984375,N1,0.024421875000000006,1.822995868510079,-4.44,4.63,9.07,0.0,91.76630327213056,812.5,808.0729166666666,0.08507936450096987,0.4702879861643879,0.3365324995656272,63.16800785114961,0.33799770773748306,63.671029518926424,0.09895833333333333,74,0.056518125,0.0010915154874645626,4.2950206963489303e-07,35.59600000000001,0.01872609587358423,1.8541671696416313e-05,72.902,0.6779498506526862,2.1700000000000017,-0.001221389220211919
S096,9985.0,10014.984375,N2,-0.030427083333333358,1.8805536986305813,-4.35,4.44,8.79,-0.11,71.41102105953388,859.375,850.7161458333334,0.05581428468591172,0.4735678336369094,0.3094837070518504,63.157250813943214,0.3310382022322887,63.671029518926424,0.075,61,0.056624875000000005,0.0010575795286289359,-1.4038740787418876e-07,35.585333333333345,0.012310790208413427,-6.597224011834086e-06,71.88066666666666,0.14018876163547941,0.519999999999996,0.00019805560928158126
S096,10015.0,10044.984375,N2,0.008833333333333348,1.8494362016271035,-5.03,4.81,9.84,-0.08499999999999999,84.9561165212814,812.5,799.2919921875,0.045595976308831845,0.49716972391226727,0.24016912082368586,63.07243689112469,0.3461039561002378,63.671029518926424,0.046875,40,0.05787385,0.0009920286172787562,2.407435548892024e-07,35.56533333333334,0.016069294390927257,-2.0208338815198567e-05,73.05133333333333,0.3208502592937849,1.1000000000000085,0.0005577084846214424
S096,10045.0,10074.984375,W,-5.729166666666267e-05,1.886486385356208,-5.14,6.61,11.75,0.04,110.50882272418521,796.875,816.6178385416666,0.0,0.49999023427963085,0.16532992583014122,63.02602651228643,0.33724186064414746,63.671029518926424,0.019791666666666666,17,0.05801262499999999,0.001011311887784871,-6.430021275504906e-07,35.525,0.01802775637731932,-2.0381949973401355e-05,73.36566666666667,0.09783262350679559,0.28000000000000114,-0.0001539930973288595
S096,10075.0,10104.984375,N1,0.006718749999999999,2.252208028631408,-9.61,14.88,24.490000000000002,-0.06,86.88660224752353,796.875,765.6901041666666,0.03225804701500421,0.4759755606908825,0.194978186101819,62.93029193508567,0.32149178044336707,63.671029518926424,0.3458333333333333,166,0.057478875000000006,0.0009999803044935442,6.163146203110412e-07,35.48266666666667,0.015260697523012852,-2.215278378710523e-05,72.73166666666667,0.23459302821884714,0.8199999999999932,-0.0004112848337903732
S096,10105.0,10134.984375,N1,0.01451041666666666,2.4267443189332547,-19.98,10.64,30.62,0.0,69.69125841133607,773.4375,793.9778645833334,0.09636964965693295,0.478576402744524,0.22838645595544602,62.935219817254705,0.32720771257039555,63.671029518926424,0.3489583333333333,159,0.057638999999999996,0.0009643017681203333,-8.339846012327909e-09,35.476666666666674,0.01299572579307919,3.194445310993175e-06,72.70700000000001,0.3127954603251136,0.8299999999999983,0.0004113542782536569
S096,10135.0,10164.984375,N2,-0.03825,1.553175664834256,-3.95,4.37,8.32,-0.14,82.6979750930023,828.125,866.650390625,0.0,0.4433096406576333,0.1203113726498409,62.870105774365506,0.2954655988332338,63.671029518926424,0.26875,138,0.057115925,0.0009713076852238956,2.4713743683198746e-07,35.458,0.015143755588800033,-1.8055560453438198e-05,72.656,0.11110355529865028,0.46000000000000796,0.00015520837543629983
S096,10165.0,10194.984375,N2,0.021463541666666662,1.9894222867780293,-4.61,5.2,9.81,-0.01,114.88694051368985,812.5,836.865234375,0.0,0.35910164724706506,0.11110243021644485,62.79393725642074,0.23845440520738836,63.671029518926424,0.15208333333333332,93,0.05744685,0.0010011761470890134,-3.3081389182234476e-07,35.42799999999999,0.015790292376437913,-2.1458339154283203e-05,74.483,0.5609881163328397,1.8800000000000097,0.0008853821846197357
S096,10195.0,10224.984375,N1,-0.008963541666666663,1.710795507798674,-5.33,4.2,9.530000000000001,-0.07,53.06324017990354,828.125,802.0100911458334,0.06441510347391795,0.35398126274564307,0.045595976308831845,62.78998882588019,0.2363152820059115,63.3798075099633,0.15104166666666666,95,0.05805532499999999,0.0008619029640133507,2.1155409384605413e-07,35.40733333333331,0.009977753031396266,-5.000001356337116e-06,74.71266666666665,0.14306020488669224,0.4399999999999977,0.00011520836458560336
S096,10225.0,10254.984375,N2,0.028666666666666663,1.926227528890488,-4.69,4.71,9.4,-0.06,90.40584446704412,781.25,779.1341145833334,0.06441510347391795,0.2943625410196677,0.08507936450096985,62.75806446904459,0.2024082489546419,63.671029518926424,0.10416666666666667,75,0.05854637499999999,0.0011970764321358087,9.738160193728341e-07,35.40133333333332,0.013349989596332774,-5.763890452443662e-06,74.14133333333332,0.35349430295582296,1.1600000000000108,-0.0003817362146636876
S096,10255.0,10284.984375,N2,-0.0037552083333333448,1.7542135323729473,-4.69,4.87,9.56,-0.15,63.185744041815575,765.625,756.9254557291666,0.08507936450096985,0.2795007329547138,0.06454972243679027,62.75100867425332,0.19757369203944153,64.03124237432849,0.09270833333333334,60,0.05894134999999999,0.0009920286172787538,-1.523411871585247e-07,35.379,0.015779733838059334,-2.812500762939692e-06,74.67533333333334,0.16321219997972594,0.5099999999999909,-2.152778361756342e-05
S096,10285.0,10314.984375,N2,0.013187500000000003,1.7030576810089992,-4.42,3.94,8.36,-0.05,72.4053740218149,890.625,855.9733072916666,0.11557806855349138,0.2699987139887069,0.14994211846205482,62.744715501288965,0.19803618097799533,64.03124237432849,0.09270833333333334,64,0.05840759999999999,0.0011385777048581259,-5.520978060161139e-07,35.35433333333334,0.018199511592956522,-2.3229172967981135e-05,74.20033333333335,0.07631004011414284,0.30000000000001137,3.0208341527895806e-06
S096,10315.0,10344.984375,W,0.1412291666666667,21.277616088411218,-169.1,78.45,247.55,-0.03,83.23289819086021,843.75,851.3916015625,14.650260710611565,6.080394463486495,12.651686891738873,62.94530301094388,1.527278252467446,76.24303246854758,0.058333333333333334,17,0.056411499999999996,0.0033335244986850386,-1.8822010314130406e-06,35.336333333333336,0.006574360974440139,9.375002543131566e-07,74.35666666666665,0.3869481733887474,1.5499999999999972,-0.0006059723866027509
S096,10345.0,10374.984375,W,-0.8295885416666664,155.7869160039051,-1063.09,795.81,1858.8999999999999,-0.185,0.0,937.5,937.5,16.209410311263298,7.628571283431052,7.036764735495164,63.70134737896751,3.3238106300013173,107.19141756689292,0.0625,31,0.05912285833333333,0.004609389842657836,2.2663237484602184e-06,35.302,0.02227105745131885,-3.277778666932049e-05,71.979,0.5955129441638242,2.0,0.0003414237037282185
S096,10375.0,10404.984375,W,0.7515000000000001,95.77603882800402,-490.18,340.21,830.39,1.8250000000000002,0.0,937.5,937.5,31.324156180441104,10.25296318745288,11.038104574797552,63.75273922328073,5.298556394122455,120.96693763173474,0.07916666666666666,30,0.05596312500000001,0.0040396760896605315,-6.158988215871372e-07,35.26866666666667,0.017074997966487898,-1.0972225198628785e-05,73.80300000000001,0.7650061001935436,3.1500000000000057,0.0012307295005234116
S096,10405.0,10434.984375,W,-0.10322916666666665,6.443552299713979,-43.71,24.45,68.16,-0.1,30.90013690384568,906.25,917.4641927083334,0.20341859124448017,0.18505055146424776,0.507486273418635,62.70688253304233,0.2958174897320999,63.608175575157006,0.03958333333333333,21,0.055632100000000004,0.0009605127484838504,-2.490834009015308e-07,35.272000000000006,0.011944315244778646,4.097223333664615e-06,78.34433333333332,0.7044131521265685,2.9099999999999966,-9.482641461220029e-05
S096,10435.0,10464.984375,W,0.0022395833333333243,4.428441962297029,-13.77,21.84,35.61,-0.13,68.03942205834603,734.375,763.8346354166666,0.12068956964966863,0.06454972243679027,0.3791208763559307,62.871812607848355,0.22769732161203132,64.1482657598785,0.004166666666666667,4,0.05616585,0.0009449636381893225,2.924506001656363e-07,35.268,0.013012814197295457,-4.930556893055952e-06,76.87533333333333,0.17467557229205197,0.9000000000000057,-7.638890961070784e-05
S096,10465.0,10494.984375,W,0.015343749999999982,3.8883159361522996,-10.2,7.91,18.11,0.425,79.63000781275852,828.125,851.8880208333334,0.0,0.0,0.16532992583014122,62.95276878305049,0.09098102981631118,62.96824596572466,0.0,0,0.056358000000000005,0.0009643017681203334,4.825990892467147e-07,35.27866666666667,0.009910712498210367,-2.0833338984734074e-07,75.04333333333332,0.44558825039366656,1.75,-0.0007176390835609491
S096,10495.0,10524.984375,W,-0.027744791666666657,3.4008485717222654,-8.26,6.96,15.219999999999999,0.305,41.75258678714373,812.5,798.6328125,0.0,0.0,0.10152910775842672,62.96251367584535,0.05587145057866382,62.96824596572466,0.0,0,0.059144141666666664,0.0023013510969856865,1.4442154525324053e-06,35.327000000000005,0.02697529734157995,4.052084432531629e-05,75.208,0.1989539310158685,0.7199999999999989,0.00013076392436087367
S096,10525.0,10554.984375,W,-0.11760937500000006,15.96336642335075,-137.27,143.82,281.09000000000003,0.095,35.064803446922596,812.5,813.8102213541666,10.276479548028188,1.7624507479328007,4.74337428518718,63.00935743623838,0.48951554863232766,67.94850991743675,0.058333333333333334,21,0.05856772499999999,0.0010189453858647172,2.2267388852915772e-07,35.39799999999999,0.018330302779823174,2.1944450397257544e-05,75.72,0.5451054943770061,1.5499999999999972,0.0009691669295700222
S096,10555.0,10584.984375,W,0.12560416666666668,26.105864797445086,-177.16,223.53,400.69,0.275,26.93045087818798,828.125,840.5924479166666,8.52782796650993,1.0224556624114427,4.721393667098966,62.76920470349296,1.1984639715055556,73.34166619323561,0.025,4,0.060414499999999996,0.0011377767355680996,7.250106133383824e-07,35.43666666666666,0.015776212754933773,7.777779887636621e-06,76.92733333333334,0.24505690949020154,0.7999999999999972,-0.00015618059792225445
S096,10585.0,10614.984375,W,0.030114583333333333,2.9647172236213906,-8.68,7.65,16.33,0.2,77.32368834135022,812.5,791.1295572916666,0.0,0.254795584597841,0.43829169439426985,62.64608280673701,0.28426918835485304,63.592452382338585,0.30625,183,0.06180211666666667,0.0012400819541689805,1.3341422889925923e-06,35.461333333333336,0.016069294390924683,1.7291671357331996e-05,76.07533333333335,0.21445641877909696,0.7399999999999949,-0.00038409732641528984
S096,10615.0,10644.984375,W,0.10693229166666658,48.32655400066043,-212.49,202.07,414.56,-0.02,65.45555400553033,843.75,812.98828125,29.7674842850336,6.967427861001784,9.40700041995543,63.368481221953516,4.207404697624208,102.00980345045274,0.10833333333333334,33,0.06082000833333333,0.004186564535303844,-2.7218230039667446e-06,35.513,0.021158134763411187,2.093750567966172e-05,75.60566666666666,1.2021499721563669,4.5,0.0011432989212507906
S096,10645.0,10674.984375,W,0.16765104166666714,86.71867887896842,-510.68,491.36,1002.04,0.89,0.0,843.75,843.75,8.962071894316006,5.7055342133512985,7.166508900879764,63.68908848700383,3.5948469176395803,101.24722218411723,0.057291666666666664,20,0.06095891666666666,0.001296849898686129,5.367319164311804e-08,35.524333333333324,0.023048258550748935,-2.8923618957143163e-05,84.67266666666667,3.253754685829213,10.200000000000003,0.005852501587592662
S096,10675.0,10704.984375,W,0.04232291666666666,30.877811925257237,-264.44,177.7,442.14,0.16999999999999998,89.66355945386623,812.5,766.5934244791666,4.327224134083792,2.697413683808478,7.2987970345147755,63.58939855308757,1.1654112249547492,70.25667228100119,0.04791666666666667,11,0.05947512499999999,0.002522830158646238,-2.649772637199609e-06,35.483666666666664,0.010796089827135582,-7.673613192712827e-06,89.62366666666667,1.0985823693388777,4.140000000000001,-0.0015219101350667677
S096,10705.0,10734.984375,W,-0.3321979166666666,52.50358361839055,-253.25,369.89,623.14,0.26,75.1075662027825,671.875,727.294921875,6.359302483889032,2.0064090020066527,5.897072804784639,63.328865231306274,2.3722869096533334,80.65977932030313,0.052083333333333336,13,0.05874921666666666,0.0022367163364455096,3.1468524161383506e-06,35.519666666666666,0.024149994248905887,3.781251025729824e-05,84.82,1.062882872192417,3.8299999999999983,-0.001652431003806154
S096,10735.0,10764.984375,W,-0.7249583333333334,22.485212971953306,-235.21,121.7,356.91,0.985,55.13632775077714,812.5,817.4967447916666,22.144964484955274,6.574849161239789,7.160601766955802,63.62152792240648,2.1426077923368574,85.58621384311844,0.06041666666666667,22,0.06075610833333333,0.0027259851301741464,-4.93700003716364e-07,35.53966666666666,0.013287420951995104,2.187500593397227e-06,81.493,0.16633600532255982,0.75,-0.00018517366134268215
S096,10765.0,10794.984375,W,0.6772291666666664,57.20415542461331,-268.85,285.48,554.33,0.605,74.87170938440714,828.125,790.5924479166666,15.99305591363318,25.416143074354178,10.707212115020496,64.50441587187771,7.8355572889138685,139.49193525075205,0.07083333333333333,23,0.06275189166666667,0.00345067323575133,1.97647688163978e-06,35.53533333333333,0.015216949614016921,-1.1041669661910197e-05,80.50399999999999,0.686326452936211,2.3500000000000085,-0.00026277784906083207
S096,10795.0,10824.984375,W,0.06633854166666665,5.708408954484563,-21.1,10.49,31.590000000000003,1.8849999999999998,75.11502381892453,750.0,740.7877604166666,0.49960813637345386,0.03225804701500421,0.30682167447974656,64.14841656603623,0.19479152177652156,64.41273166075166,0.0010416666666666667,1,0.06278399999999999,0.0019771516591635895,-1.0878909201092989e-06,35.493,0.015524174696260384,-1.85069494647761e-05,82.63766666666668,0.7046355243827995,2.180000000000007,0.001265521176627924
S096,10825.0,10854.984375,W,-0.05577083333333326,47.21510525674825,-224.54,248.42,472.96,0.635,16.09411467598879,781.25,784.5947265625,21.370275808960486,24.029069490006382,16.910868483707862,64.35860012703432,8.831393228430258,140.33531273346705,0.06458333333333334,22,0.07047969166666666,0.013417027837662007,-8.93916583636226e-06,35.47133333333334,0.012578641509408763,1.0833336272065199e-05,82.17633333333333,0.8337724842878633,2.799999999999997,-0.001409271215622617
S096,10855.0,10884.984375,W,0.1429843749999998,60.55431100896607,-310.0,264.7,574.7,-0.435,0.0,781.25,781.25,34.126923976593126,32.28538588112361,26.01375303992529,65.96463602203237,11.796809363020902,151.90786681406595,0.121875,50,0.056123375,0.013015124101766182,9.526008443470171e-06,35.49066666666668,0.011234866364235523,3.750001017253319e-06,80.76866666666665,0.7425080620587372,2.5700000000000074,-0.0012277781108339036
S096,10885.0,10914.984375,W,-0.07267187500000004,32.43097603302796,-191.77,159.33,351.1,0.53,58.20550024774291,781.25,750.9847005208334,15.375385291863873,17.914625731624053,14.530871373502137,64.66996315846139,4.345019955832286,95.73400649716902,0.08541666666666667,32,0.06733105833333332,0.0035184864792877292,3.027614319556838e-06,35.513999999999996,0.01799999999999984,1.576389316511829e-05,80.91733333333335,0.7321472225963545,2.5200000000000102,0.0006406946182439827
S096,10915.0,10944.984375,W,-0.03463541666666667,11.400009944823688,-82.14,58.38,140.52,0.18,56.67736922434283,703.125,694.1162109375,0.3074575823273116,0.32775110973199706,0.18138165716399096,64.18761448143601,0.17719250137990455,66.09841147864296,0.025,20,0.0711417,0.0013421961332085563,1.764634159243207e-06,35.54533333333334,0.01117536974282563,2.2916672883208967e-06,83.401,1.5458489576928274,5.260000000000005,0.002773091030026864
S096,10945.0,10974.984375,W,0.010833333333333328,2.4833513841625843,-6.31,5.93,12.239999999999998,0.21,42.52769602485261,796.875,797.4446614583334,0.12867851305568548,0.18742764807756854,0.04564354645876384,64.19216836966218,0.06373121374827284,65.45991139621256,0.003125,1,0.072625125,0.0009863009223228976,1.5228324443447366e-07,35.56266666666667,0.010934146311239526,1.354167034008196e-05,83.34433333333335,1.6516651866794583,5.549999999999997,-0.0029537160790245437
S096,10975.0,11004.984375,W,-0.02763020833333333,2.351545227505549,-5.57,5.37,10.940000000000001,-0.04,48.111934429555696,781.25,779.6956380208334,0.1361518504791209,0.49449991398437637,0.05581428468591173,64.19689899025053,0.06319310802646404,65.1536645170477,0.005208333333333333,4,0.07363895833333332,0.0011334884457272676,1.0453221151589928e-06,35.582,0.016812693617225313,2.250000610351786e-05,77.95933333333332,1.0884359829079928,3.969999999999999,-0.001881181065858578
S096,11005.0,11034.984375,W,0.016953124999999993,2.536229513201845,-5.62,5.91,11.530000000000001,0.20500000000000002,68.26205589297282,781.25,777.2542317708334,0.06441510347391793,0.4699106002445808,0.03225804701500421,64.19996206131538,0.03646448958187933,65.14598989960932,0.0010416666666666667,1,0.0748878,0.0009774476763489703,7.344624388190212e-07,35.612,0.017397317800932257,2.1875005933974554e-05,76.31966666666668,0.05694929518634935,0.23999999999999488,-8.781252382066818e-05
S096,11035.0,11064.984375,W,0.012359375000000002,2.610506098364761,-6.16,5.84,12.0,0.02,38.821473706471906,781.25,790.7958984375,0.0,0.45210613421764395,0.0,64.20057265529857,0.0035211356199624194,64.20280367709809,0.0,0,0.075965975,0.0012241856167979602,1.1711923749979325e-06,35.65866666666666,0.017269111795984397,2.5555562487944587e-05,76.146,0.30113784219190953,0.8399999999999892,-0.00042618067116446153
S096,11065.0,11094.984375,W,0.01770312499999998,7.8109045694538635,-66.53,46.09,112.62,0.25,44.93648567876529,718.75,751.66015625,2.7136084444758337,0.7329951575840502,0.6939720615573959,64.05609556565591,0.3445347832829029,65.83312236253116,0.10729166666666666,80,0.07787680000000001,0.0010406893196338643,2.774388773434449e-07,35.723,0.01934769581457465,2.4340284380501394e-05,75.97833333333331,0.5392159946523192,1.6500000000000057,0.0008147571654614715
S096,11095.0,11124.984375,W,-0.05440104166666672,11.928660905374736,-109.01,93.28,202.29000000000002,0.235,29.769942492536753,765.625,780.6070963541666,0.602727272429708,1.328522816237602,0.43176297992455687,64.03976456764136,0.4160978904065522,65.58200972827838,0.234375,164,0.077332375,0.0009651876679563383,-1.1258792116642745e-07,35.73866666666667,0.012310790208414298,6.944446328215092e-08,76.99666666666668,0.23594255421370974,0.6200000000000045,-0.0004043751096937705
S096,11125.0,11154.984375,W,0.06389583333333335,4.990210565612368,-10.13,8.46,18.590000000000003,0.795,27.91248494233407,781.25,777.7587890625,0.0,0.04559597630883185,0.43480194844894615,64.06602662015247,0.42262052235512804,64.79197481170026,0.253125,172,0.07772735,0.0010325545155099535,6.254884509246006e-07,35.778000000000006,0.028095076674274758,4.666667932581479e-05,76.60233333333332,0.30983526088695823,0.9200000000000017,-0.00043864595232366447
S096,11155.0,11184.984375,W,-0.04252604166666667,5.143550798527236,-10.16,9.92,20.08,0.6,26.24656937398748,781.25,778.0924479166666,0.03225804701500421,0.032258047015004204,0.4348019484489461,64.06581401676848,0.4228073266815991,64.79197481170026,0.253125,181,0.07960615,0.001041346113211167,4.036485469966773e-07,35.85,0.032249030993193366,5.3888903507188875e-05,76.41966666666667,0.4517261953391188,1.2399999999999949,0.000760868261954281
S096,11185.0,11214.984375,W,0.22405208333333337,14.621140816945646,-71.07,105.41,176.48,0.475,28.50213159802861,781.25,779.0445963541666,10.152592236629218,7.292154447970472,9.6118131504899,64.14553651790301,0.5683849901581977,69.00724599634447,0.265625,165,0.07893370000000001,0.0027919414589134923,-1.6314522654764185e-06,35.92733333333332,0.017688665548563326,2.416667322229841e-05,77.30533333333332,0.054573090642021184,0.20000000000000284,-2.104167237458546e-05
S096,11215.0,11244.984375,W,-0.20318229166666668,13.608135955961655,-84.34,64.53,148.87,0.11,56.5377768338342,843.75,808.5205078125,4.341174296297412,1.3639036952551142,1.002254403277376,64.00925178351004,0.6551547770438617,70.46985170979147,0.05625,33,0.08115390000000001,0.0012570243195738084,1.163784603891222e-06,35.93399999999999,0.015832456116052492,-1.7638893673748006e-05,77.60033333333334,0.3536427890148781,1.0600000000000023,0.00018059032676603893
S096,11245.0,11274.984375,W,-0.007479166666666666,3.0237080745996803,-6.68,5.51,12.19,0.5,37.97629111866443,734.375,729.7932942708334,0.39999999999999997,0.1465717910464205,0.48594726901577384,63.931380741124606,0.4824139301765185,64.56779382943171,0.3802083333333333,215,0.08247725833333333,0.0010095247767789332,4.2327203322266465e-07,35.892666666666656,0.014360439485691639,-1.3888892656494806e-06,78.60499999999999,0.719609847996353,2.6700000000000017,0.0012817017365727374
S096,11275.0,11304.984375,W,0.008989583333333325,3.211948610250714,-7.51,6.98,14.49,0.72,29.419879537955715,781.25,780.7210286458334,0.43829169439426985,0.11580316603568697,0.47981726664950275,63.90201248495484,0.47706607440021925,64.56779382943171,0.359375,221,0.08358708333333334,0.001052131983033606,7.772862351579432e-07,35.94666666666667,0.023142073276947436,3.604167644359834e-05,79.935,0.2947173787433191,0.9500000000000028,-0.0001544097641085514
S096,11305.0,11334.984375,W,-0.011750000000000009,3.4314112226847233,-7.71,5.55,13.26,0.7,29.89299548034755,765.625,769.4905598958334,0.49817265908908426,0.12801909579781015,0.483027920748089,63.879878875716074,0.48264875825317993,64.56779382943171,0.37083333333333335,219,0.08416338333333333,0.0009556766554239088,2.0320187803870449e-07,35.99833333333334,0.021304668241700193,3.135417517203154e-05,78.96333333333332,0.5444344670287601,2.1500000000000057,-0.0009227780280973406
S096,11335.0,11364.984375,W,0.03832812500000003,18.354777468080364,-151.75,136.44,288.19,0.385,32.24312610295796,796.875,789.1764322916666,6.311881071830374,5.87048797999484,2.1497009542511565,63.78478533904964,1.6182915635607362,76.68767828015137,0.035416666666666666,12,0.083640475,0.0015563646100368016,9.210486439476581e-07,36.047000000000004,0.014410644214144275,1.0798614040421261e-05,78.33733333333333,1.0468585811316113,2.8400000000000034,0.0015852782078120149
S096,11365.0,11394.984375,W,-0.021145833333333315,5.090330154606802,-12.45,8.0,20.45,1.33,23.49073087225122,812.5,812.0849609375,0.0,0.12401959270615269,0.33993463423951903,63.93702610094796,0.33138854340010965,64.28841264178172,0.015625,15,0.08532695,0.0010740981088801901,5.454259292062526e-07,36.06933333333334,0.028039654459752133,4.145834457963135e-05,78.59666666666665,0.8395647020265262,2.5500000000000114,-0.0015088198537380254
S096,11395.0,11424.984375,W,-0.037687499999999964,5.204059820051753,-29.41,19.41,48.82,0.78,23.555453154303333,781.25,772.6888020833334,2.3036314082184584,0.560388591304185,0.2818107835203141,63.80247959070557,0.2792365978882302,65.42935121182236,0.020833333333333332,14,0.086255675,0.0010393196665968536,1.2537568505199739e-07,36.160999999999994,0.02624880949681275,4.065973325187991e-05,76.50133333333333,1.0697062940618594,2.8600000000000136,-0.0016956949044311255
S096,11425.0,11454.984375,W,-0.020296875000000027,5.388485627686308,-17.89,17.53,35.42,0.975,47.120700035139414,781.25,791.7399088541666,2.2050447211388304,0.6476913796430278,0.22876622210238992,63.638885088975485,0.22961119058391927,65.54387843269576,0.03229166666666667,16,0.087152375,0.0009838968616552228,4.450697821912373e-07,36.209666666666664,0.019232495649001435,1.8784727317904113e-05,76.23033333333333,0.7657261622509418,2.6599999999999966,0.0013748267618345167
S096,11455.0,11484.984375,W,-0.0006354166666666661,5.480844465461412,-11.95,8.15,20.1,1.3450000000000002,33.80881377203103,796.875,809.375,0.4998686893547367,0.03225804701500421,0.05581428468591172,63.56766477624311,0.055105007459481166,64.5445582524197,0.003125,3,0.0882092,0.0010709105518202752,8.173049092081545e-08,36.22333333333333,0.013984117975601045,2.777778531297926e-06,77.26666666666667,0.40808768121024563,1.2999999999999972,-0.0007256251968384309
S096,11485.0,11514.984375,W,0.04888541666666661,5.133207463357648,-11.58,12.03,23.61,1.105,44.56036528660579,750.0,759.9039713541666,0.4189468857212756,0.032258047015004204,0.06441510347391796,63.56662484820861,0.06322241513273502,64.53681120105021,0.004166666666666667,4,0.08899915,0.000992028617278757,8.084090734616634e-07,36.23733333333333,0.00963788819653548,7.638890961071876e-07,76.27233333333334,0.1464851149055408,0.4100000000000108,0.00013871531540671746
S096,11515.0,11544.984375,W,-0.003098958333333342,7.44124661449325,-57.03,31.04,88.07,1.09,26.009337384889346,765.625,764.8356119791666,1.8589579947887171,0.8687050348075578,0.3148798271651513,63.510630149125454,0.3257423230074782,65.58200972827838,0.07916666666666666,58,0.08959695,0.0010825523763310467,3.5527744012517296e-07,36.23866666666667,0.011175369742827946,-8.125002204049053e-06,77.279,0.5103028512559971,1.7999999999999972,0.0008985766326434014
S096,11545.0,11574.984375,W,-0.012833333333333445,10.03490787375361,-59.74,42.48,102.22,0.57,46.85259742873738,875.0,847.6155598958334,0.9917629505078318,2.2951183758958926,0.5113458803735491,63.50545576297033,0.29721766000677735,65.06150935845248,0.090625,50,0.08955425,0.0010791786170509486,8.495523137891461e-07,36.23199999999999,0.014922019523733166,5.625001525879015e-06,77.92466666666665,0.6239430173412379,1.9699999999999989,-0.0010120836078785832
S096,11575.0,11604.984375,W,-0.0007812499999999407,10.138866051305497,-64.04,70.54,134.58,0.7,35.28632976888623,765.625,769.7672526041666,1.3251862912802947,1.9320712475360622,0.5358248687123018,63.65423074912487,0.38372004182688846,64.57553716385176,0.2552083333333333,91,0.09019475,0.00111654580627039,6.710796091253271e-07,36.171,0.029137604568666427,-3.2118064268138486e-05,75.69699999999999,0.3627777097158344,1.3199999999999932,-0.000630104337593406
S096,11605.0,11634.984375,W,-0.03855208333333362,41.744512044341874,-340.45,297.83,638.28,1.06,25.36102786984199,703.125,716.7073567708334,7.483728805321397,9.6427365776836,2.952730720298961,64.0428075230181,2.60709216746498,82.27393268830657,0.053125,28,0.09066439166666668,0.0020665752075024716,-9.591024737148624e-07,36.173,0.032878564445547216,-2.9687508053251262e-05,76.20433333333334,0.4313906453423495,1.4099999999999966,0.0006871876864115909
S096,11635.0,11664.984375,W,0.02520833333333334,5.271494101368594,-12.23,15.83,28.060000000000002,0.33,83.22511600254447,750.0,733.7158203125,0.4986690184185855,0.0,0.4671953385630041,63.95733185300173,0.46694279986264253,64.69930447848725,0.321875,201,0.08912725,0.0010272434412056382,2.4463548302828907e-07,36.035333333333334,0.028836705005175996,-4.5416678986728584e-05,77.52199999999999,0.8434666561281475,2.3999999999999915,0.0014779170675773283
S096,11665.0,11694.984375,W,-0.013515625000000024,4.759160507288114,-11.1,8.49,19.59,0.645,48.68705138714073,796.875,810.0504557291666,0.40461208274098787,0.0,0.4915254034352875,64.0087935435258,0.4888071558626456,64.69930447848725,0.4083333333333333,224,0.08890307499999998,0.001012663156915962,-1.604030383037755e-07,35.991333333333344,0.005617433182117354,-5.763890452443809e-06,76.86500000000001,0.5696534033954328,1.8500000000000085,-0.000863437734222475
S096,11695.0,11724.984375,W,-0.0015208333333333417,4.838911871870849,-11.11,10.01,21.119999999999997,0.735,52.05447605515113,828.125,836.1328125,0.06441510347391793,0.0,0.494022428359505,63.99641692259804,0.4897663412367727,64.69930447848725,0.42291666666666666,236,0.089543575,0.000964242679191809,4.2505415176165153e-07,35.99066666666668,0.009285592184789674,2.361111751602999e-06,74.57333333333332,1.4034631768909671,4.079999999999998,-0.0024752784492400285
S096,11725.0,11754.984375,W,-0.001682291666666654,4.614273048232489,-10.16,8.71,18.87,0.72,27.309621675250806,796.875,806.787109375,0.05581428468591172,0.0,0.496208497774765,64.01176324705902,0.4920189723268102,64.69930447848725,0.43854166666666666,233,0.09023745,0.001043969155435157,3.480495735811566e-07,35.99766666666667,0.0098938813864368,6.145835000497293e-06,72.85833333333333,0.03633944902658409,0.12000000000000455,4.687501271565239e-06
S096,11755.0,11784.984375,W,0.01527083333333337,4.78685310355171,-10.21,8.96,19.17,0.735,31.16694539671373,796.875,788.134765625,0.03225804701500421,0.0,0.49817265908908415,64.0300696704119,0.49389067838552914,64.69930447848725,0.45729166666666665,238,0.091123475,0.0009251598236926405,-1.6957686891733514e-08,36.018666666666654,0.016878651868229493,1.8402782769851915e-05,74.047,0.6958982205274943,2.2099999999999937,0.0012512850616550183
S096,11785.0,11814.984375,W,0.027942708333333337,4.933866604783818,-10.12,8.32,18.439999999999998,0.835,40.62511003919517,828.125,825.6103515625,0.045595976308831845,0.0,0.49874408239318707,64.0374353330606,0.49434397344596187,64.69930447848725,0.46458333333333335,241,0.09132627499999998,0.0010274123073892966,-1.5401675184916312e-07,36.05266666666668,0.011234866364235468,6.388890621985635e-06,75.07199999999999,0.15778466338652777,0.5,-0.000262500071207701
S096,11815.0,11844.984375,W,-0.024661458333333306,4.950568190240679,-15.29,13.47,28.759999999999998,0.64,52.12334685292249,765.625,773.92578125,0.19144008346100239,0.14627537173085564,0.49834687655788523,64.03508372158294,0.49342622197373004,64.69930447848725,0.4552083333333333,232,0.09124085,0.001055369095387959,4.702275581129451e-07,36.07866666666667,0.013349989596335389,6.180557232139652e-06,74.632,0.31289401826603647,1.0100000000000051,0.00040340288720781446
S096,11845.0,11874.984375,W,0.003286458333333327,4.633123359438529,-9.97,8.52,18.490000000000002,0.77,27.504796081932337,781.25,794.0104166666666,0.0,0.18483053424390922,0.49989148127924277,64.08120330577185,0.49519311149025197,64.56779382943171,0.0,0,0.09228671666666667,0.0010170358006099038,-2.9901223389003806e-07,36.09933333333334,0.017688665548561293,1.8194449380003955e-05,75.77866666666667,0.33730039364868064,1.0,0.000600000162760459
S096,11875.0,11904.984375,W,0.02115624999999999,4.37640309840771,-9.32,7.93,17.25,0.585,39.23659122739682,781.25,780.46875,0.0,0.20219874281810515,0.49881695979086366,64.10466209875261,0.4943485997597544,64.56779382943171,0.0,0,0.09247884166666666,0.0009438283212166077,-3.336307328642354e-08,36.11866666666666,0.013349989596334324,1.3680559266645103e-05,76.631,0.20935376758014054,0.6899999999999977,-0.00016128476597351724
S096,11905.0,11934.984375,W,-0.027619791666666664,4.207273972838584,-9.27,8.9,18.17,0.54,30.793130973166974,781.25,781.591796875,0.0,0.23825719937822562,0.4999609359740019,64.07609551957974,0.4956305401810124,64.56779382943171,0.0,0,0.09241478333333332,0.0010277214699140167,1.5891670977558394e-07,36.14133333333333,0.010873004286864565,6.041668305572882e-06,76.37566666666666,0.1913580123456787,0.5999999999999943,0.0003385070362703546
S096,11935.0,11964.984375,W,0.055286458333333344,4.372251305728163,-10.64,8.29,18.93,0.65,43.31295900772887,796.875,798.6735026041666,0.0,0.2091235015221601,0.4982608642958915,64.11176634835688,0.4938782174715583,64.56779382943171,0.0,0,0.09309778333333334,0.0011210196636941238,5.753161282867087e-07,36.15733333333331,0.009977753031396268,5.208334746184654e-06,77.006,0.24816123790793598,0.8699999999999903,-0.00010409725046040748
S096,11965.0,11994.984375,W,-0.0357760416666667,4.600212474921784,-9.99,11.17,21.16,0.51,32.61822301016568,781.25,788.134765625,0.0,0.21137108216357317,0.4992659542323665,64.09727480915514,0.4945405675775374,64.56779382943171,0.0,0,0.09370601666666666,0.0010190927336225185,-2.3312289309974295e-07,36.17466666666666,0.015434449203721713,1.0833336272064952e-05,76.05066666666666,0.18222574522339777,0.5799999999999983,-0.0003082639725108457
S096,11995.0,12024.984375,W,-0.02655729166666667,4.4116290655882064,-9.1,9.86,18.96,0.53,50.58440570647727,765.625,765.283203125,0.0,0.1592592172022985,0.49749371855330987,64.12079620115567,0.4932405057629542,64.56779382943171,0.0,0,0.09391945833333334,0.0009663693211865482,1.0837459537071213e-08,36.193,0.016960738977611852,1.5868059860042478e-05,75.86833333333333,0.39947535037290566,1.4500000000000028,0.0004357292848658013
S096,12025.0,12054.984375,W,0.03255729166666669,4.3875124610280025,-9.56,8.11,17.67,0.695,29.05785267086568,796.875,791.7236328125,0.0,0.15291936305524628,0.49749371855330987,64.12087814851924,0.49314683014333677,64.56779382943171,0.0,0,0.09455983333333334,0.0010282778267029218,7.942367605893975e-07,36.211,0.0164012194668557,1.4131948277979702e-05,77.37200000000001,0.09795917517006865,0.4300000000000068,9.111113582658705e-05
S096,12055.0,12084.984375,W,-0.002932291666666668,4.481958218745714,-10.08,8.33,18.41,0.38,60.89957543332818,781.25,792.6839192708334,0.04559597630883185,0.232399078305449,0.49716972391226727,64.12243822978849,0.49201842813662683,64.56779382943171,0.0,0,0.09521100833333333,0.0010371553844999415,2.8076852234389096e-07,36.232,0.013012814197295856,1.076389180878142e-05,76.71933333333332,0.4388388719741657,1.1800000000000068,-0.0007118057486452281
S096,12085.0,12114.984375,W,-0.022244791666666652,4.3644641963621424,-9.29,8.31,17.6,0.54,30.55016055788983,765.625,765.7552083333334,0.0,0.17116012950028858,0.49418383718061387,64.14644830495156,0.4893054875801401,64.56779382943171,0.0,0,0.09567002499999999,0.0009614021397807495,3.866908601049436e-07,36.254,0.012000000000001875,8.611113447026478e-06,77.25399999999999,0.35744090420655583,1.3299999999999983,0.0006348612833282566
S096,12115.0,12144.984375,W,-0.006942708333333333,4.256457701350306,-10.75,10.47,21.22,0.14500000000000002,24.981491867242156,765.625,761.81640625,0.20077702789551288,0.19485293154211347,0.4905254676110101,64.16999271719878,0.48364209355154886,64.69930447848725,0.0020833333333333333,2,0.09577677500000001,0.0009986118737402463,2.671530672615747e-07,36.263333333333335,0.014907119849999657,3.4722231641231604e-06,79.82700000000001,1.2942749579075803,3.450000000000003,0.0021844103147814456
S096,12145.0,12174.984375,W,0.03849999999999997,3.745677778564693,-7.76,8.01,15.77,0.415,25.40855231286131,750.0,759.0901692708334,0.0,0.17677362623014656,0.49738792532980625,64.12158712719126,0.4928464500762798,64.56779382943171,0.0,0,0.09530707499999999,0.0010260779791882299,-2.2378586799746908e-07,36.26866666666667,0.015434449203720422,-4.02777887038244e-06,80.45633333333333,0.12131181127802625,0.29999999999999716,0.00015427087518198428
S096,12175.0,12204.984375,W,0.014781250000000027,3.9355407630949233,-8.99,8.54,17.53,0.49,29.666004987902813,765.625,769.8567708333334,0.05581428468591172,0.16532992583014125,0.4944999139843763,64.14409465007193,0.4902344907764636,64.56779382943171,0.0,0,0.09562732499999999,0.0009281112914812555,1.5289717689268137e-08,36.26333333333333,0.011925695879999684,-1.0000002712674824e-05,79.60333333333332,0.8472163569924481,2.0500000000000114,-0.0014675003980849607
S096,12205.0,12234.984375,W,-0.03272395833333333,3.84614758920763,-8.53,8.07,16.6,0.3,37.05995626513682,765.625,761.9222005208334,0.03225804701500421,0.15612494995995996,0.49228421668788036,64.15788428524839,0.4876054149395429,64.56779382943171,0.0,0,0.09651335,0.0012113185491438693,9.435145788613795e-07,36.254,0.012000000000001875,4.166667796948296e-06,78.563,0.05556677664456318,0.15000000000000568,-3.5520842968977945e-05
S096,12235.0,12264.984375,W,0.0031510416666666874,3.6028551493484184,-7.34,7.17,14.51,0.565,31.368791711517765,765.625,765.8772786458334,0.0,0.18219044808935517,0.4898979485566356,64.17002498460529,0.48581732691682955,64.56779382943171,0.0,0,0.097228575,0.0010588717553958115,3.1107625625983617e-07,36.25933333333332,0.009977753031398737,-9.722224859546024e-07,78.21533333333333,0.21946500606905106,0.5999999999999943,-0.0003806251032511666
S096,12265.0,12294.984375,W,0.02157812500000002,4.112042560569886,-8.56,8.07,16.630000000000003,0.44,28.86321383875218,765.625,765.8365885416666,0.032258047015004204,0.17399263633843817,0.4931815908944921,64.15247977438823,0.48837021139233827,64.56779382943171,0.0,0,0.09755950000000001,0.000954801026392413,6.671876809862433e-08,36.267333333333326,0.014360439485692432,1.6944449040921243e-05,78.20633333333332,0.10904076709602074,0.3199999999999932,-9.482641461220055e-05
S096,12295.0,12324.984375,N1,0.012479166666666668,4.063383006547538,-8.49,8.1,16.59,0.4,56.104343704414596,765.625,771.0856119791666,0.03225804701500421,0.1592592172022985,0.48358021711903065,64.1970731040229,0.4791188545003758,64.56779382943171,0.0,0,0.09782637500000001,0.0009792530747334948,4.4840572059617023e-07,36.282000000000004,0.013266499161420532,-9.722224859549724e-07,78.34766666666665,0.2665668563210543,0.730000000000004,0.0004598265136248161
S096,12325.0,12354.984375,W,-0.0035781250000000023,4.0241439771838206,-8.18,7.9,16.08,0.42,28.892976846577398,765.625,767.2526041666666,0.045595976308831845,0.17677362623014656,0.494022428359505,64.14715272962346,0.489562746091829,64.56779382943171,0.0,0,0.09758085,0.0011091730827512928,2.501953803698487e-08,36.27666666666667,0.018135294011646694,1.8333338306569318e-05,78.14566666666666,0.1367889696657671,0.519999999999996,-2.170139477576867e-05
S096,12355.0,12384.984375,W,-0.02247395833333336,4.380368869354897,-9.35,8.88,18.23,0.355,39.78769851791112,781.25,788.1673177083334,0.0,0.17116012950028858,0.49228421668788036,64.15780241061677,0.48769680498258206,64.56779382943171,0.0,0,0.097911775,0.0010818679329636328,2.5158535470522854e-07,36.279333333333334,0.013399834161493434,4.683754655687145e-19,77.39566666666668,0.3965491422537972,1.25,-0.000695521022005485
S096,12385.0,12414.984375,W,-0.03391145833333335,4.097109609030539,-8.66,8.54,17.2,0.51,58.34414915449911,765.625,747.7294921875,0.06441510347391792,0.24762544169571912,0.48619840486049404,64.18484174187884,0.48180103428196636,64.56779382943171,0.0,0,0.09775165,0.0010325545155099583,-3.413776967712943e-07,36.28,0.00999999999999801,3.4027787008399e-06,77.32233333333333,0.14755074456681747,0.5,0.0002622570155862127
S096,12415.0,12444.984375,W,0.033229166666666664,4.176721836757783,-9.91,11.32,21.23,0.535,40.548038943715774,781.25,780.6396484375,0.0,0.2363252195069329,0.4905254676110101,64.1659590009118,0.48575250210968823,64.56779382943171,0.0,0,0.09839215,0.001058710313305768,3.936407317818823e-07,36.298,0.01222020185321632,7.777779887635683e-06,77.64600000000002,0.1904310898986815,0.4899999999999949,0.0003243056435290905
S096,12445.0,12474.984375,W,-0.004260416666666663,4.181083899901614,-8.53,8.18,16.71,0.47,25.792052192662,765.625,760.888671875,0.05581428468591172,0.23825719937822562,0.48246599621113195,64.19961765239881,0.47841922251218333,64.56779382943171,0.0,0,0.098616325,0.001012663156915959,-1.7986267899920694e-07,36.31666666666667,0.011925695879997564,9.722224859543555e-06,77.76100000000001,0.09961090971039664,0.2599999999999909,-0.00012121531065953154
S096,12475.0,12504.984375,N1,0.02458854166666665,4.201620475765119,-8.57,8.15,16.72,0.495,24.371837128191334,765.625,758.5856119791666,0.032258047015004204,0.20912350152216008,0.4883528419738016,64.17668914555891,0.4835497019957306,64.56779382943171,0.0,0,0.09900061666666667,0.000997669569407736,2.715925215908527e-07,36.326,0.011135528725659613,6.041668305573474e-06,78.554,0.30610020145915107,1.0999999999999943,0.0005188890296465443
S096,12505.0,12534.984375,W,-0.024848958333333334,4.097431573317577,-8.29,8.23,16.52,0.405,28.802660889724127,750.0,747.9573567708334,0.05581428468591172,0.23632521950693286,0.4871793817476268,64.18108112900545,0.48226041929674074,64.56779382943171,0.0,0,0.099235475,0.001005435402885235,8.064631093921187e-07,36.343,0.012688577540448453,3.5069453957649507e-06,79.42133333333332,0.25626462017913343,0.8100000000000023,0.0004597917913931726
S096,12535.0,12564.984375,W,-0.007999999999999988,4.228386729396133,-8.37,9.16,17.53,0.385,35.5977450138208,750.0,757.2672526041666,0.04559597630883184,0.25302853099996453,0.48741875213265595,64.17980425172895,0.48263292789318907,64.56779382943171,0.0,0,0.09989730833333335,0.0011751350900771162,4.478015537656119e-07,36.370333333333335,0.016829207415151322,2.1909728165615776e-05,79.81866666666666,0.104298716301889,0.29999999999999716,7.52083537349051e-05
S096,12565.0,12594.984375,W,0.025875000000000006,4.396793240178004,-8.94,8.24,17.18,0.75,36.28145088565867,781.25,781.9498697916666,0.07880950133074056,0.2885548282196797,0.4833052703778432,64.1949436947253,0.47853494931493606,64.56779382943171,0.0,0,0.10047370000000001,0.0009892893459448563,-8.19301437527524e-08,36.38199999999999,0.011075498483891898,-4.861112429773085e-06,79.52399999999999,0.5342072007501701,1.6399999999999864,-0.0008997224662875603
S096,12595.0,12624.984375,W,-0.03268749999999999,4.36510051027966,-8.62,8.12,16.74,0.46499999999999997,29.14311048119756,781.25,775.537109375,0.03225804701500421,0.28103965899950056,0.48669359942598606,64.18233155784658,0.48216435508860295,64.56779382943171,0.0,0,0.10103929166666666,0.001060942280835246,5.024270026114923e-07,36.40066666666665,0.016110727964792224,6.666668475115398e-06,78.10866666666668,0.20928024804606535,0.7900000000000063,-0.00030715286109832653
S096,12625.0,12654.984375,N2,-0.02734895833333334,4.308535194710775,-8.73,8.1,16.83,0.52,28.036717210925993,765.625,774.6826171875,0.07880950133074056,0.30682167447974656,0.4833052703778432,64.19441654449673,0.4785058463349897,64.56779382943171,0.0,0,0.10163694166666666,0.0010277064131342297,3.585102969049203e-07,36.41199999999999,0.013999999999999957,1.1458336441605593e-05,77.00166666666668,0.2248567445187168,0.7800000000000011,-3.059028607592589e-05
S096,12655.0,12684.984375,N2,0.05685416666666668,4.324691378630307,-8.93,10.05,18.98,0.5700000000000001,31.585434868042015,750.0,762.5732421875,0.09636964965693297,0.3041220715025465,0.4888058986931542,64.17141255841253,0.4847871608737484,64.56779382943171,0.0,0,0.10236255833333334,0.0010400915728581558,6.130680916525843e-07,36.43066666666666,0.013148721948879403,1.2430558927562415e-05,77.61666666666666,0.10386957633921964,0.4299999999999926,5.82639046939818e-05
S096,12685.0,12714.984375,W,-0.04260416666666666,4.3043034896270935,-12.1,11.78,23.88,0.335,35.79284376489199,765.625,774.4954427083334,0.08507936450096987,0.2795007329547138,0.486447180457447,64.18267251238326,0.4821471091150872,64.56779382943171,0.0,0,0.10347248333333332,0.0009668193642328183,-2.7241023014600395e-07,36.43733333333333,0.014126413400279174,6.736112938398807e-06,78.39366666666665,0.2021300461474121,0.6999999999999886,0.00025927090366506636
S096,12715.0,12744.984375,N1,0.04138541666666667,4.317838055839287,-8.96,8.68,17.64,0.625,29.00853546453515,765.625,777.0426432291666,0.10642856726723118,0.2732186624299299,0.48619840486049404,64.183382462181,0.48161953870548424,64.56779382943171,0.0,0,0.10316295833333332,0.00099065566163554,7.440985091413035e-07,36.44333333333332,0.012995725793079678,8.88889130015508e-06,77.74233333333333,0.22954568656854013,0.75,-0.0003403125923156988
S096,12745.0,12774.984375,W,-0.021161458333333372,4.362947428699763,-8.64,7.64,16.28,0.395,43.597971454680184,781.25,777.7994791666666,0.12801909579781018,0.254795584597841,0.4892496646651892,64.16980503569698,0.4837750999227936,64.56779382943171,0.0,0,0.10391013333333335,0.0009142314525812855,-1.2496531167679326e-08,36.45399999999999,0.011999999999999034,2.083333898473185e-06,77.43033333333334,0.045349261907504476,0.1599999999999966,-1.8506949464774796e-05
S096,12775.0,12804.984375,W,-0.0738020833333333,12.80105396142556,-92.83,78.36,171.19,0.335,24.351121938935155,765.625,768.5139973958334,13.159608966824289,8.310215264021444,10.309942812156162,64.22996467606356,3.06444193586592,97.43715923609432,0.04479166666666667,20,0.10339792500000002,0.004218893099622418,-2.4289383759055897e-06,36.462,0.011075498483889248,8.333335593898812e-07,77.59966666666668,0.11004494031480389,0.35999999999999943,0.00015711809817656698
S096,12805.0,12834.984375,W,0.02440624999999993,19.645011887074396,-123.21,113.15,236.36,1.08,77.6036204888498,750.0,750.9114583333334,1.1353110616025999,1.7571085781918987,1.7913998711242245,64.68129658651188,0.3745511371692044,67.01492371106603,0.034375,17,0.1041984,0.0013295993719914284,1.4910390329424441e-06,36.573666666666675,0.033910011632096684,5.135418059738069e-05,79.743,1.276365020935104,3.680000000000007,0.0022589242238835257
S096,12835.0,12864.984375,W,-0.010619791666666616,10.36746939958228,-21.41,16.43,37.84,1.495,56.1078565611555,812.5,829.6956380208334,0.48594726901577384,0.2200827456448041,0.0,64.57921994794462,0.41253393596782423,64.91532946846992,0.0,0,0.10650415,0.0010800230448930225,8.139689708032137e-07,36.553000000000004,0.021470910553584337,-3.336806460722324e-05,80.12166666666666,0.8408610005358925,2.760000000000005,-0.001511771243427529
S096,12865.0,12894.984375,W,-0.011343750000000104,13.373380811902774,-68.66,101.44,170.1,0.98,31.05466084242556,765.625,781.5511067708334,3.165417619619443,0.7994111330987468,4.385518605307701,64.54131437822677,0.5410144769149902,69.86415389883427,0.014583333333333334,5,0.10663225000000001,0.0011839147720592038,-1.7068884838564683e-07,36.49666666666667,0.016193277068655115,-2.430556214886126e-05,76.47666666666667,1.1487684226548391,3.6299999999999955,-0.0020458338883012923
S096,12895.0,12924.984375,N1,0.03862500000000003,11.016501930106564,-21.82,17.2,39.019999999999996,1.72,25.338404499243325,781.25,786.7838541666666,0.4342088511176262,0.1529193630552463,0.16532992583014125,64.44981845193402,0.32924384997423684,65.02307282803544,0.23125,163,0.10717667500000001,0.0009231869363108399,2.076621657069665e-07,36.470333333333336,0.014255603186895015,-7.395835339581512e-06,75.903,0.582518383114788,1.9000000000000057,0.0010459377837287829
S096,12925.0,12954.984375,W,-0.03339062500000002,11.319264663134208,-26.3,21.2,47.5,1.4049999999999998,36.10039158606082,781.25,792.3095703125,0.1874276480775686,0.08507936450096985,0.06441510347391796,64.31063560760133,0.1459945649297573,65.02307282803544,0.036458333333333336,31,0.10757165,0.0010842353192457794,5.393100421305443e-07,36.470000000000006,0.012649110640673249,1.1111114125193332e-05,76.705,0.39500843872842384,1.0200000000000102,-0.0006628821242627297
S096,12955.0,12984.984375,W,0.039859375000000016,11.519342728962792,-22.11,19.11,41.22,1.54,28.16588173850403,765.625,773.0631510416666,0.2716154572133593,0.09636964965693294,0.21794494717703367,64.31427482393694,0.12538156874360692,65.02307282803544,0.030208333333333334,21,0.10821214999999998,0.001157437828783905,8.77907790231063e-07,36.47200000000001,0.009451631252505591,-2.083333898477602e-07,76.49500000000002,0.302145108626082,0.769999999999996,0.0005039237478091773
S096,12985.0,13014.984375,N1,0.028630208333333348,10.961022608007617,-23.39,18.12,41.510000000000005,1.355,49.72068267738063,796.875,791.2679036458334,0.21137108216357317,0.032258047015004204,0.2072864320947118,64.29649515202642,0.07418107650804051,65.02307282803544,0.04479166666666667,5,0.108841975,0.0010122129343053297,2.1211008358021002e-07,36.47400000000001,0.010832051206181924,1.527778192213783e-06,77.167,0.2935432960683421,0.8499999999999943,0.00040489594316838796
S096,13015.0,13044.984375,N2,0.05161458333333336,11.130032400998989,-21.71,19.84,41.55,1.6549999999999998,33.15533858123291,796.875,800.5452473958334,0.0,0.0,0.04559597630883185,64.289718718504,0.028584884777283305,64.91532946846992,0.0020833333333333333,2,0.1090448,0.0010050386360732633,-3.741810910864516e-07,36.47066666666668,0.010934146311237736,-1.8750005086255978e-06,76.37166666666667,0.44093146355817564,1.4399999999999977,-0.0007928127150642113
S096,13045.0,13074.984375,W,-0.1423697916666667,10.78715832592953,-21.28,19.86,41.14,1.125,28.284819713132823,781.25,779.4921875,0.0,0.0,0.08507936450096985,64.29298391030967,0.05333768520959687,64.91532946846992,0.007291666666666667,7,0.1085324,0.001002313718353692,5.782293235214085e-08,36.469333333333346,0.00963788819653358,-9.027780226713898e-07,75.22366666666667,0.3001830922768436,0.8299999999999983,-0.0003302431451397392
S096,13075.0,13104.984375,N1,0.17417187499999998,11.127406155601088,-21.91,19.14,41.05,1.6,40.96283598605447,796.875,793.6848958333334,0.032258047015004204,0.0,0.21137108216357317,64.31704164062285,0.13473900099076982,64.91532946846992,0.046875,43,0.10952517499999999,0.0010843929612345338,6.252104560575245e-07,36.473666666666674,0.012242911781471591,-2.4305562148881107e-07,75.96433333333334,0.20721459622548014,0.7599999999999909,0.0002121181130962765
S096,13105.0,13134.984375,N2,-0.052713541666666655,11.59629516902309,-23.28,19.15,42.43,1.63,42.48214932718982,812.5,815.9016927083334,0.09090593428863095,0.0,0.3121091305537215,64.35092725065894,0.20624495242901852,64.91532946846992,0.10833333333333334,88,0.10990945833333333,0.0010233633673320639,6.79672710414689e-07,36.473333333333336,0.012736648783028789,7.152779718093588e-06,75.71033333333334,0.39654746107986705,1.3599999999999994,-0.000706632136130679
S096,13135.0,13164.984375,N2,-0.1244166666666666,10.770293329790151,-22.57,20.02,42.59,1.125,31.400233589202518,781.25,779.4677734375,0.08507936450096985,0.0,0.3992166265707825,64.40785367736366,0.25668010307480765,64.91532946846992,0.196875,148,0.10987744999999999,0.0009809389876541755,-6.043608410267024e-07,36.473000000000006,0.011874342087038128,6.562501780192492e-06,75.06400000000001,0.18948350851723247,0.5799999999999983,0.00022666672815395297
S096,13165.0,13194.984375,N2,0.025880208333333345,10.481351488090645,-20.92,20.82,41.74,1.4649999999999999,48.86277999266399,812.5,809.8225911458334,0.20453835214941965,0.0,0.48131312717283004,64.48527732099765,0.33392938479112916,64.91532946846992,0.346875,225,0.10978136666666667,0.000983872001611772,6.257458294666416e-07,36.46733333333334,0.013399834161493858,-1.1111114125192321e-05,75.22399999999999,0.1269803134347993,0.37999999999999545,-0.00015041670746980892
S096,13195.0,13224.984375,N2,0.05677604166666666,10.705953297691087,-22.55,19.7,42.25,1.43,43.930694786223945,796.875,797.1516927083334,0.29860606423383673,0.0,0.4975973086716026,64.49951235841813,0.37967818777086904,64.91532946846992,0.40625,234,0.11034715,0.0009005044294727239,-1.6679692024655965e-07,36.458666666666666,0.011175369742825191,-9.79166932282509e-06,74.97766666666666,0.3044632800337164,0.8700000000000045,-0.0005288543101275801
S096,13225.0,13254.984375,N2,0.03868229166666666,10.265508992652439,-21.28,18.61,39.89,1.4,36.604510133999405,812.5,807.32421875,0.428093317968044,0.0,0.48385276506793773,64.50622817404023,0.4253254737945556,64.91532946846992,0.0,0,0.11077410833333334,0.0008902322524284791,-1.1615910269072923e-07,36.46000000000001,0.013416407864997659,-3.4027787008407624e-06,74.66666666666669,0.06456693340161798,0.28000000000000114,-4.90277910774175e-05
S096,13255.0,13284.984375,N2,0.09213020833333332,10.543549740921971,-26.83,23.27,50.099999999999994,1.66,53.13149144523253,812.5,809.9690755208334,0.4999989149293782,0.0,0.4155075021885886,64.41456270310316,0.44199747509807663,64.91532946846992,0.384375,226,0.11136104166666667,0.0009959987984918548,2.0258577544101982e-07,36.44066666666666,0.011234866364236283,-4.5833345766437915e-06,74.60866666666668,0.2448909054161783,0.8299999999999983,-4.923612446726422e-05
S096,13285.0,13314.984375,N2,-0.035083333333333314,10.411516759966126,-21.26,21.57,42.83,1.75,36.34175873105976,781.25,788.6393229166666,0.48619840486049404,0.0,0.36985914877228,64.36791313730896,0.41819056403688326,64.91532946846992,0.3177083333333333,212,0.11083811666666668,0.0009772875232271975,-2.395009330243413e-07,36.43266666666667,0.012364824660662872,-2.9166674578638067e-06,74.37333333333335,0.3899601119202937,1.1299999999999955,0.0006786807396594872
S096,13315.0,13344.984375,N2,-0.15653645833333343,11.086958547175858,-21.99,20.9,42.89,1.52,41.61346138025401,812.5,824.1780598958334,0.4717715118306743,0.0,0.30815732589052625,64.36872767528261,0.3968909992755556,64.91532946846992,0.303125,213,0.11164911666666667,0.0010882353926068658,4.741164480567603e-07,36.42533333333333,0.014313940369057579,-4.652779039925375e-06,74.72033333333334,0.22958634299297584,0.6999999999999886,-0.00021802089247528335
S096,13345.0,13374.984375,N2,0.05902604166666666,10.016913308424332,-20.67,17.8,38.47,1.62,44.07217218702973,781.25,793.8557942708334,0.41268803584615293,0.0,0.2617030727062426,64.30510542661027,0.3311586818107189,64.91532946846992,0.19479166666666667,139,0.11171315000000001,0.0010479027280716456,1.9004388835825994e-07,36.42066666666666,0.011234866364236902,1.5277781922143748e-06,74.82166666666667,0.17849525359391327,0.5100000000000051,0.00023461811919979315
S096,13375.0,13404.984375,N2,0.03277083333333327,10.385206045820627,-21.82,19.06,40.879999999999995,1.62,34.89543003589392,796.875,793.1233723958334,0.3342289400620479,0.0,0.23632521950693283,64.24973462730098,0.2790167045165819,64.91532946846992,0.11770833333333333,94,0.11232145833333336,0.0009750957550913789,1.1087090681176979e-07,36.41466666666667,0.015216949614017844,-5.0694458196186496e-06,74.68933333333334,0.19758429987110732,0.75,0.0003236806433595511
S096,13405.0,13434.984375,N2,0.07502604166666661,10.06233733819609,-20.43,18.66,39.09,1.645,42.78552437628011,812.5,812.7685546875,0.2582808246366733,0.0,0.17399263633843817,64.226989600243,0.21663769357184268,64.91532946846992,0.06979166666666667,57,0.11254551666666668,0.0009770552695330117,3.056211766550506e-07,36.40666666666666,0.012736648783027738,-7.7083354243522e-06,75.18233333333335,0.4918040486029183,1.3299999999999983,-0.0007596877060784786
S096,13435.0,13464.984375,N2,-0.2026770833333333,10.026921034763937,-23.59,19.6,43.19,1.0,55.146389525015024,796.875,807.8694661458334,0.1874276480775686,0.0,0.13188915142607024,64.2100789786309,0.14834944549747286,64.91532946846992,0.03229166666666667,31,0.11287634166666667,0.0009858831531156355,2.8649899264838183e-07,36.40866666666666,0.013597385369580283,5.833334915726972e-06,74.99533333333332,0.22650582528687613,0.7999999999999972,-0.00012875003492568136
S096,13465.0,13494.984375,N2,0.019729166666666725,8.583215781734488,-20.82,17.56,38.379999999999995,1.01,57.26390744106006,765.625,787.40234375,0.14627537173085559,0.0,0.12801909579781012,64.20020523586423,0.13424854899745894,64.91532946846992,0.021875,21,0.11268425,0.0009272497977891423,-7.155279718771646e-07,36.39599999999999,0.009165151389909856,2.9861119211452175e-06,75.01733333333333,0.5498359351257007,1.3499999999999943,0.0009144446925034399
S096,13495.0,13524.984375,N2,0.07791145833333332,9.691922117717949,-20.04,19.27,39.31,1.665,52.906677324482395,812.5,802.5227864583334,0.07198059875565237,0.0,0.07198059875565237,64.19546482568653,0.06925181615380151,64.91532946846992,0.005208333333333333,5,0.11260954166666667,0.0009436243240456238,4.66265968496629e-07,36.39866666666665,0.011175369742825191,2.0833338984706897e-07,75.09033333333333,0.25937724563954256,0.7999999999999972,-0.00022927089552704489
S096,13525.0,13554.984375,N2,0.10687499999999997,10.229361433566694,-21.22,18.6,39.82,1.705,36.11488149391681,781.25,793.8557942708334,0.06441510347391796,0.0,0.06441510347391795,64.19537493711245,0.06194096828677241,64.91532946846992,0.004166666666666667,4,0.1132499,0.0011405201620313457,6.437328135125925e-07,36.392666666666656,0.011234866364234344,-9.444447006414088e-06,75.35566666666666,0.2864574818169155,0.8100000000000023,-0.00039857649700968237
S096,13555.0,13584.984375,N2,-0.06346875,10.244940328902528,-21.02,19.46,40.480000000000004,1.56,42.72375991219029,796.875,802.4576822916666,0.11987768650679834,0.0,0.06441510347391795,64.20287820883802,0.0958107567601528,64.91532946846992,0.014583333333333334,14,0.11419984166666666,0.0010458335909362259,-4.889608531252317e-07,36.393666666666654,0.015162087220724303,-4.895834661412237e-06,75.88899999999998,0.4356477935213276,1.25,0.0007304515870365656
S096,13585.0,13614.984375,N2,-0.10972916666666668,10.135034211502,-21.68,19.2,40.879999999999995,1.61,43.107113253961195,796.875,810.4410807291666,0.07880950133074056,0.0,0.05581428468591173,64.19753603005603,0.06702737988994308,64.91532946846992,0.00625,6,0.11354868333333332,0.0009592521825475447,5.576129984844304e-07,36.39199999999999,0.010770329614268315,9.027780226726735e-07,75.10933333333332,0.2571631561652821,1.1000000000000085,-0.0003362500912136752
S096,13615.0,13644.984375,N2,0.01813020833333335,10.470860075592125,-22.09,21.57,43.66,1.55,51.13089670313266,781.25,786.083984375,0.10642856726723121,0.0,0.06441510347391795,64.20062722732035,0.08711267790362945,64.91532946846992,0.011458333333333333,11,0.11361274999999998,0.0010273593273533886,-7.444442123600862e-07,36.38533333333333,0.011175369742827509,3.26388977427503e-06,74.53466666666667,0.2821433835639064,0.980000000000004,0.00018819449549547024
S096,13645.0,13674.984375,N2,0.08028125000000001,9.822914304916427,-19.58,17.78,37.36,1.5150000000000001,50.289323627343855,796.875,806.6080729166666,0.045595976308831845,0.0,0.032258047015004204,64.19585559856276,0.038716514262504546,64.91532946846992,0.0020833333333333333,2,0.113324575,0.0009492761159825975,8.139433631573814e-08,36.38866666666666,0.014544949486180793,-3.0555563844284295e-06,75.051,0.16242639358593558,0.46999999999999886,-0.00023059034032941195
S096,13675.0,13704.984375,N2,-0.030192708333333387,10.125075015892318,-21.17,19.34,40.510000000000005,1.55,45.56358532513399,812.5,811.3525390625,0.03225804701500421,0.0,0.05581428468591173,64.19378439419326,0.04236923209387731,64.91532946846992,0.0010416666666666667,1,0.11409307499999999,0.0009231869363108458,-1.9765435049217472e-07,36.38866666666666,0.013597385369580654,-3.0555563844283066e-06,75.10300000000001,0.35938048546538187,1.1000000000000085,-0.0005563543175874353
S096,13705.0,13734.984375,N2,2.08333333333884e-05,9.94248312166362,-21.07,18.26,39.33,1.56,53.00405797778051,812.5,821.1669921875,0.03225804701500421,0.0,0.0,64.19576570998866,0.0232359256405895,64.91532946846992,0.0010416666666666667,1,0.11536339999999999,0.0010023137183536879,1.1453388523597212e-07,36.38533333333333,0.012310790208413426,-2.4305562148869746e-06,74.47266666666665,0.20792520022567948,0.75,0.00015569448667927813
S096,13735.0,13764.984375,N2,0.10144270833333334,9.579796212377172,-20.12,18.92,39.040000000000006,1.6,35.996408142052616,781.25,777.83203125,0.045595976308831845,0.0,0.03225804701500421,64.19585559856276,0.038716514262504546,64.91532946846992,0.0020833333333333333,2,0.11525665000000002,0.0010192249395987111,-7.450262437679693e-08,36.38466666666667,0.012578641509409341,-2.222222825038277e-06,74.50133333333333,0.3984280222184293,1.1200000000000045,0.0006762501834446039
S096,13765.0,13794.984375,N2,-0.1261614583333333,9.348732701825483,-20.42,19.36,39.78,1.4449999999999998,42.84542302881757,781.25,790.4541015625,0.0,0.0,0.04559597630883185,64.19369450561916,0.028908808981801877,64.19501538281614,0.0,0,0.11521395,0.000888272901477917,2.913386206973254e-07,36.38466666666667,0.012578641509409341,2.083333898474222e-06,75.50966666666666,0.26557463901677314,1.2000000000000028,0.0003333681459874541
S096,13795.0,13824.984375,N2,-0.06168229166666676,10.162636885768285,-20.48,17.92,38.400000000000006,1.34,70.0168369684628,812.5,806.7138671875,0.0,0.0,0.0,64.19501538281612,1.4210854715202004e-14,64.19501538281614,0.0,0,0.115374075,0.0010081518830885533,-1.6040303830377623e-07,36.38,0.010000000000001563,-6.180557232139972e-06,75.53033333333333,0.4919246780645265,1.490000000000009,-0.0005302431993932275
S096,13825.0,13854.984375,N2,0.10659895833333335,9.675123047537893,-19.92,17.94,37.86,1.745,37.93455812659136,781.25,785.1725260416666,0.045595976308831845,0.0,0.032258047015004204,64.19585559856276,0.038716514262504546,64.91532946846992,0.0020833333333333333,2,0.11557690833333334,0.0010554435875958592,-2.079356032811414e-07,36.36366666666667,0.012775845264489282,2.2569450566792047e-06,75.38466666666666,0.16648790413186745,0.47999999999998977,0.00012250003323026126
S096,13855.0,13884.984375,W,-0.013197916666666682,9.992872203600708,-21.86,18.06,39.92,1.54,59.085896123015026,812.5,814.7135416666666,0.0,0.0,0.04559597630883185,64.19369450561916,0.028908808981801877,64.19501538281614,0.0,0,0.11542745,0.0009809389876541744,7.005470650355534e-07,36.37499999999999,0.014317821063276979,-7.986113277485833e-07,75.70666666666666,0.37622097525552967,1.0499999999999972,-0.0004950001342773791
S096,13885.0,13914.984375,N1,0.030249999999999992,9.761555051365194,-20.64,18.81,39.45,1.66,43.090127921973085,812.5,805.3873697916666,0.05581428468591172,0.0,0.0,64.19726636433379,0.04020381543995244,64.91532946846992,0.003125,3,0.116548325,0.0009571255243566523,5.562677290222787e-07,36.37166666666666,0.013437096247163839,1.2395836695919069e-05,75.075,0.14550486818889263,0.5300000000000011,-0.00020253477716329887
S096,13915.0,13944.984375,N2,-0.018536458333333335,9.88322154555196,-20.1,17.64,37.74,1.4249999999999998,30.825254567581805,796.875,794.2220052083334,0.0,0.0,0.0,64.19501538281612,1.4210854715202004e-14,64.19501538281614,0.0,0,0.117103425,0.0010674466236655588,6.352182712723175e-07,36.38133333333334,0.009910712498213887,7.986113277484233e-06,74.766,0.27974512209032854,0.769999999999996,0.0004325695617864473
S096,13945.0,13974.984375,N2,-0.045515625,10.000604072628022,-19.93,17.98,37.91,1.275,36.70118466387304,781.25,778.8330078125,0.0,0.03225804701500421,0.03225804701500421,64.19465446546535,0.022466111680442644,64.48255578061404,0.0010416666666666667,1,0.11778662499999998,0.0009412783777262733,-4.456257719253949e-07,36.38733333333333,0.00997775303139766,-2.2222228250391403e-06,75.876,0.4063381186483336,1.2000000000000028,0.0006600696234997902
S096,13975.0,14004.984375,W,0.035718749999999945,9.722797046121302,-19.89,18.17,38.06,1.495,39.13570665027498,781.25,777.9052734375,0.1998263134713633,0.06454972243679027,0.09668440031302304,64.22181239488229,0.14237643721589496,64.91532946846992,0.040625,20,0.1171568,0.0011686078084627027,1.6624093051240522e-07,36.39399999999999,0.01583245611605028,1.0000002712674551e-05,76.63866666666667,0.2791980579365753,0.8999999999999915,0.0005006251358032583
S096,14005.0,14034.984375,W,0.07443750000000002,10.186776139735954,-21.79,21.94,43.730000000000004,1.62,54.898028755080794,765.625,770.6624348958334,0.0,0.0,0.10152910775842672,64.20171585080541,0.06530808350572007,64.8382603097893,0.010416666666666666,10,0.11798945,0.0008779497978244569,9.229429586976342e-08,36.399999999999984,0.012382783747336493,5.48611259931449e-06,77.80366666666667,0.38459921418998694,1.1099999999999994,0.0006646182358447902
S096,14035.0,14064.984375,W,-0.16499479166666642,51.23411964127655,-307.68,197.7,505.38,0.935,33.78927320195375,750.0,771.7203776041666,22.29447156710823,17.205796290734813,11.173613938090934,64.43095596170453,2.000478408004569,81.81686867633104,0.05416666666666667,25,0.11685791666666666,0.001651489749606566,3.9696104518257526e-07,36.38833333333332,0.014624940645652895,-1.5173615227216526e-05,77.66300000000001,0.28237268517569686,1.0,-0.0004869098543049733
S096,14065.0,14094.984375,W,0.056390625000000055,10.186614631441373,-26.02,21.35,47.370000000000005,1.045,66.91539578242444,750.0,773.291015625,0.4665876049098984,0.5130078784320309,0.12496093139457629,64.2592453132903,0.15947862880916508,65.37583651472461,0.007291666666666667,7,0.1172849,0.000838921891477391,-9.9522162413781e-08,36.34633333333334,0.01722078847078456,-1.7048615735842593e-05,75.78933333333335,0.4722424047974608,1.6300000000000097,-0.0007209724177985067
S096,14095.0,14124.984375,W,0.0736666666666666,9.721195415459745,-19.91,15.74,35.65,1.44,34.19988610612422,812.5,827.8401692708334,0.297201939858332,0.49480701730573706,0.1067949667847486,64.26566083398076,0.14377379833025852,65.33758489567853,0.0020833333333333333,2,0.1180962,0.0011763830626118359,1.0113453264283126e-06,36.333999999999996,0.009165151389912337,-3.6111120906889928e-06,74.953,0.4127319549861234,1.2000000000000028,-0.0007316321429123668
S096,14125.0,14154.984375,N1,-0.019260416666666655,9.590433296112494,-20.59,19.44,40.03,1.365,30.743990840797007,828.125,823.6328125,0.20912350152216008,0.06441510347391793,0.11987768650679834,64.34222198598268,0.11784130514499778,64.35837163881635,0.0,0,0.11936649166666664,0.0011005943166901015,-6.818918950444581e-07,36.31666666666667,0.01299572579307749,-3.33333423755797e-06,73.92433333333332,0.6613807946679082,1.8400000000000034,-0.0010532988968367206
S096,14155.0,14184.984375,W,-0.09748958333333331,10.899339331559268,-25.36,19.18,44.54,1.0950000000000002,34.32103940608494,796.875,787.8092447916666,0.09636964965693297,0.11599041357658256,0.15021685713216965,64.33799435941988,0.15673270428131844,65.54387843269576,0.0020833333333333333,2,0.1194839,0.001048221441299497,6.515787357798207e-07,36.30466666666667,0.012578641509409341,-7.222224181376428e-06,73.34566666666666,0.44427231388967936,1.4300000000000068,0.0007577432611065715
S096,14185.0,14214.984375,N2,0.02289583333333335,10.188339528270344,-19.96,19.96,39.92,1.49,35.6014508126173,796.875,793.6604817708334,0.0910728874766433,0.10703853634971328,0.17468970506459605,64.33201559754552,0.17998376916341102,65.54387843269576,0.00625,6,0.12012423333333334,0.0010480042201993036,6.619637212358171e-07,36.288666666666664,0.013597385369580585,-8.888891300155377e-06,74.77033333333334,0.27502100929848217,1.1000000000000085,0.00046885429385153473
S096,14215.0,14244.984375,W,0.03350520833333334,12.688657227806438,-49.17,86.82,135.99,0.735,38.25711118545952,796.875,792.7978515625,0.48322107173287326,0.12499565964686757,0.20712147536060946,64.32143935973197,0.2124782945621015,65.54387843269576,0.010416666666666666,5,0.12077524999999997,0.0008808309925859781,4.0210861602338685e-07,36.275333333333336,0.01146976702272246,-7.361113107940311e-06,76.40866666666668,0.3579081198048216,1.2199999999999989,0.0005519445941689976
S096,14245.0,14274.984375,N2,-0.02115625000000001,9.326559795627714,-17.74,15.84,33.58,1.1150000000000002,41.449392782819466,781.25,790.5192057291666,0.48765577995366993,0.0,0.15612494995995993,64.32481987469723,0.154266288474975,64.35837163881635,0.0,0,0.120924625,0.0009423003419159944,8.64533654658647e-08,36.278000000000006,0.013266499161420532,-2.777778531297655e-06,76.18800000000002,0.3141061391737949,0.9200000000000017,0.0003128473070874859
S096,14275.0,14304.984375,W,0.0410729166666667,9.093532534335404,-18.2,16.3,34.5,1.31,34.60803850022185,781.25,792.7815755208334,0.4600535898735663,0.04564354645876384,0.162326296048696,64.32478467453832,0.1619976572346094,64.56779382943171,0.0010416666666666667,1,0.12108472499999999,0.0009486320410860064,5.907477730978124e-07,36.266666666666666,0.012736648783028789,-7.152779718094475e-06,76.20866666666667,0.1870602992501491,0.7399999999999949,-0.0003122223069179432
S096,14305.0,14334.984375,N2,0.025119791666666662,9.556944093292406,-39.75,45.58,85.33,1.0150000000000001,43.47822760612948,828.125,818.8151041666666,0.5322865704257018,0.514367152633538,0.15777038079295985,64.24022984296585,0.19406542605296123,65.54387843269576,0.009375,7,0.12237595,0.000976771312795376,-1.636558603667157e-07,36.264,0.01171893055416541,-2.5694451414512022e-06,76.18266666666666,0.3173949520007449,1.0600000000000023,-0.00023451395250487139
S096,14335.0,14364.984375,N2,-0.08421874999999993,7.519711424681254,-16.11,14.94,31.049999999999997,1.2349999999999999,37.889386623285354,796.875,797.9410807291666,0.39763706363340934,0.49808225977241954,0.03225804701500421,64.26400924559861,0.10016161082216375,64.35837163881635,0.0,0,0.12219446666666668,0.0008655247727374561,-9.560983496360625e-08,36.26466666666667,0.008844332774282449,5.1388902829028975e-06,74.94866666666667,0.15081408716989575,0.5999999999999943,-0.00012381947803262615
S096,14365.0,14394.984375,N2,0.12190625000000004,7.141944603564046,-14.59,13.4,27.990000000000002,1.375,44.51597074314371,796.875,803.7109375,0.38903705014932566,0.502984797580625,0.16409473889596013,64.27523069872677,0.20899033179841758,65.54387843269576,0.0020833333333333333,2,0.122898975,0.0009762171758246201,6.665763526954066e-07,36.27266666666666,0.014360439485691398,6.944446328244199e-07,74.54133333333333,0.20328524021406272,0.6500000000000057,-0.0002520834017153341
S096,14395.0,14424.984375,N2,-0.07911458333333331,7.545859360395651,-15.65,14.65,30.3,1.19,37.72219685815986,812.5,819.8974609375,0.2728371385399478,0.4736823830374104,0.15138251770487457,64.30348286256016,0.19792695058245918,66.7757440991862,0.004166666666666667,4,0.12316583333333334,0.0010058657575552604,2.526901727132622e-07,36.272,0.01399999999999972,1.2291670000995226e-05,74.62166666666666,0.2719323853869238,0.9000000000000057,-0.0004437848426065662
S096,14425.0,14454.984375,W,0.032703125,7.74887483333539,-16.72,13.84,30.56,1.3,48.31286292839732,828.125,828.5807291666666,0.23629078131263043,0.45126053196389043,0.15115297622680882,64.2999421285591,0.18748492548737053,66.55824516917495,0.0020833333333333333,2,0.12398780000000001,0.0009586126224914813,-1.4511332061450735e-07,36.282000000000004,0.011075498483889161,8.611113447023739e-06,73.78133333333335,0.2650249464149025,0.8499999999999943,-0.0004354862292443107
S096,14455.0,14484.984375,W,-0.06788541666666664,7.99169351364511,-17.03,15.2,32.230000000000004,1.135,59.273544432767906,828.125,838.0126953125,0.09090593428863095,0.5086480839085986,0.18257418583505536,64.27291960756584,0.22157794575588996,69.88562083862459,0.0020833333333333333,1,0.12321920000000001,0.0008844158580667784,3.6639723480827703e-07,36.28266666666668,0.009637888196532057,6.7361129383973515e-06,72.99933333333333,0.3497993075401323,1.1200000000000045,-0.0004086112219539983
S096,14485.0,14514.984375,W,0.058171875000000026,40.76251721022892,-293.77,192.8,486.57,0.865,43.43545785398481,828.125,830.2001953125,16.625137550339495,27.481210417269907,12.845579756119742,64.54931147233205,6.757937686986827,177.5499929597295,0.059375,23,0.15179334166666666,0.08956121322690382,2.51707164634105e-06,36.28,0.013416407864997657,-9.930558249390577e-06,72.07633333333334,0.2018660171720067,0.5799999999999983,0.0001068403067600663
S096,14515.0,14544.984375,W,0.012442708333333385,25.103054595462268,-132.16,176.92,309.08,0.20500000000000002,72.33707046523352,718.75,704.8990885416666,3.863286507481537,4.594017376950399,3.026135970991812,63.56173921803319,0.8490774868890512,69.66347680097513,0.06041666666666667,21,0.10301364166666667,0.0016589302567007508,-2.704855334433408e-07,36.327,0.008999999999999236,6.215279463779962e-06,74.214,1.9757371620064574,5.930000000000007,0.003415000926378286
S096,14545.0,14574.984375,W,0.0374322916666667,26.183722361194633,-161.19,155.9,317.09000000000003,-0.035,70.06599826947635,750.0,779.1666666666666,17.45404233265177,17.51425560238161,23.9741304577788,63.61311346666965,5.116550277606942,91.54780172128658,0.103125,29,0.09469881666666667,0.00393310246494065,-5.1345986150712385e-06,36.31933333333333,0.01339983416149341,-1.4305559436185076e-05,79.82466666666666,0.7197348277124168,2.4799999999999898,0.000954028036574446
S096,14575.0,14604.984375,W,-0.12365625000000012,47.53609378306835,-298.48,193.64,492.12,0.69,0.0,875.0,875.0,20.72980777903055,36.77216540316194,18.951868603589155,63.54127338255488,5.444159126080967,109.01834707974616,0.08958333333333333,33,0.08660795,0.002662262527281385,-1.3326179830235423e-06,36.291333333333334,0.013597385369581048,-5.555557062597876e-06,82.04566666666666,0.5375604358788167,2.030000000000001,0.0006618404573134958
S096,14605.0,14634.984375,W,0.08486979166666668,7.831014334291511,-68.46,44.54,113.0,0.11,95.12948529594993,781.25,776.3102213541666,5.718427814239388,1.2617464575991044,1.652819757578444,62.85532191510345,0.6209591629478507,68.51277253184256,0.05625,22,0.088817675,0.0011751715701866696,1.332985387637096e-06,36.242333333333335,0.03630273941301036,-6.225696133272737e-05,84.33700000000002,0.9453293958545156,3.319999999999993,0.0014824656799223277
S096,14635.0,14664.984375,W,0.006885416666666647,10.860355387994323,-69.54,59.33,128.87,0.185,39.89285370778095,781.25,779.7200520833334,7.4918703045182395,5.460930918172794,6.171882559770335,62.916864080829555,3.8714346050380484,98.2496819333274,0.0375,12,0.08810245,0.0015263383627164737,-2.518633495723068e-07,36.147,0.01934769581457394,-2.996528590637945e-05,82.27633333333333,1.7474466769801273,5.159999999999997,-0.0030765633345712176
S096,14665.0,14694.984375,W,-0.03274479166666659,16.512767712234133,-135.0,87.86,222.86,0.0,67.16926386365591,875.0,851.318359375,11.540278007615568,13.218344285539004,9.538886910864594,63.31548266760406,2.7297871531795566,83.34266614405853,0.090625,27,0.087387275,0.002381885943821619,2.953605184897242e-06,36.09466666666667,0.021715329966536186,-3.4652787177947405e-05,76.71466666666666,1.4618612185232291,4.61999999999999,-0.0020487505557591555
S096,14695.0,14724.984375,W,0.02897916666666668,6.605072253861621,-27.77,64.75,92.52,-0.215,69.4358137383605,765.625,765.3727213541666,1.6830545225992135,3.042063330299939,0.7887115900138796,63.12064384187081,0.4676494281998703,69.06518659932803,0.07916666666666666,40,0.08989585,0.0012592880836012055,-1.0280250184529674e-06,36.06000000000001,0.014375905768566474,-6.250001695421464e-07,75.90733333333333,0.24516570360109913,0.8999999999999915,-0.00017965282651172522
S096,14725.0,14754.984375,W,-0.02122395833333334,3.9245976587640166,-29.05,9.55,38.6,-0.19,83.2646341072213,765.625,729.19921875,0.8881062092390126,0.4921210823793492,0.7675033647682306,63.277020189348455,0.6869068035676356,66.29479617586888,0.042708333333333334,13,0.08906319999999998,0.001031892126144977,7.216746749334517e-07,36.07200000000001,0.017397317800935386,2.4652784465276897e-05,76.25466666666668,0.5568406913611426,1.6499999999999915,0.0008602085666798416
S096,14755.0,14784.984375,W,0.01551041666666666,4.130805239535607,-18.1,22.69,40.790000000000006,-0.32,89.10282404484678,703.125,736.9140625,0.19290530474101078,0.3814249939918289,0.4828257032534848,63.431690503571005,0.449321554324031,64.82283548256741,0.008333333333333333,7,0.09030149999999999,0.0009500150261969516,-2.0238026323249336e-07,36.11266666666667,0.015260697523012493,1.6388893334661446e-05,76.76899999999999,0.24510337954966335,0.7000000000000028,0.0003542014849721894
S096,14785.0,14814.984375,W,-0.03541666666666665,3.326979647726882,-9.61,7.86,17.47,-0.295,98.62096734257356,812.5,803.22265625,0.428618936478935,0.39095680352466333,0.4920196473041837,63.30717965052402,0.44248882804528944,64.19501538281614,0.28854166666666664,179,0.09071782499999999,0.0010674466236655562,7.019370393709407e-07,36.155999999999985,0.014282856857085444,1.61111154815302e-05,76.76366666666667,0.08810914948075527,0.3200000000000074,3.642362099164995e-05
S096,14815.0,14844.984375,W,0.043052083333333324,3.4263622226233843,-5.78,7.26,13.04,-0.13,65.35196524485379,843.75,809.6598307291666,0.4,0.3197747009614738,0.48693766534388727,63.35273394047051,0.45168455212047437,63.984373092185564,0.2520833333333333,177,0.09118747499999999,0.001125125770469683,7.935920121506091e-07,36.206333333333326,0.022874051285730078,3.045139714935875e-05,76.74833333333335,0.10878367933145446,0.3100000000000023,-6.378473952493933e-05
S096,14845.0,14874.984375,W,-0.0013333333333333196,16.943167646248707,-246.74,99.42,346.16,-0.25,81.03754518516706,906.25,864.3717447916666,10.013194203635633,6.499064352396984,7.908333813553726,63.21289015087341,3.7907917519884804,95.26279441628824,0.052083333333333336,14,0.08944749999999999,0.0018661414469433976,-1.796958820789608e-06,36.25266666666666,0.016918103387267104,1.944444971909054e-05,76.77566666666668,0.5548193900320672,1.6700000000000017,-0.0008964932987449251
S096,14875.0,14904.984375,W,-0.029973958333333325,3.343746689928106,-6.87,7.02,13.89,-0.12,67.33318768224291,828.125,834.08203125,0.1545006236503055,0.7314658691342566,0.536747494883664,62.75151946706703,0.3872074047702375,63.96092557178953,0.14166666666666666,95,0.09022676666666667,0.0009613737370150159,2.148867770417687e-07,36.24333333333333,0.01813529401164861,-2.0000005425350163e-05,74.47533333333334,0.6880781609349012,2.0,-0.0012234031096471113
S096,14905.0,14934.984375,W,0.011958333333333338,3.6017896330524204,-6.33,7.17,13.5,-0.10500000000000001,63.10487928016475,796.875,798.8444010416666,0.06451609403000842,0.5016628166380505,0.10172129679778086,62.830863970723776,0.21944860994024054,63.84355879804947,0.0125,9,0.0904723,0.0009913391498372265,1.0397008028702236e-07,36.19033333333333,0.02316366887078971,-2.5590284719587412e-05,73.25399999999999,0.27648508097183117,0.9300000000000068,-4.687501271566149e-05
S096,14935.0,14964.984375,W,0.004249999999999999,3.671252533763738,-6.55,7.6,14.149999999999999,-0.155,61.5669535248646,765.625,791.7399088541666,0.032258047015004204,0.38436088501635485,0.04564354645876384,62.92647107291142,0.16095023053580393,63.84355879804947,0.0010416666666666667,1,0.0906431,0.001042439849583656,4.547996025389538e-07,36.178,0.01423610433604241,8.958335763438045e-06,75.08433333333333,0.5358711495209348,1.6799999999999926,0.0009051044121919494
S096,14965.0,14994.984375,W,0.0012916666666666612,3.516760346056754,-8.63,7.86,16.490000000000002,-0.245,81.9462084086445,796.875,802.0751953125,0.3445949212078179,0.21392496088322396,0.2616719744684597,62.70400067290425,0.2699684162206177,65.0384501660364,0.12395833333333334,69,0.09171044166666667,0.0011017002147879849,8.5710982451981e-07,36.212333333333326,0.017065234314892454,2.2881950651568997e-05,75.92000000000002,0.39404737447841465,1.019999999999996,0.0006643751802232986
