participant_id,window_start_time,window_end_time,sleep_stage,BVP_mean,BVP_std,BVP_min,BVP_max,BVP_range,BVP_median,SDNN,median_nni,IBI_mean,x_std,y_std,z_std,mag_mean,mag_std,mag_max,movement_density,burst_count,EDA_mean,EDA_std,EDA_trend,TEMP_mean,TEMP_std,TEMP_slope,HR_mean,HR_std,HR_range,HR_trend
S098,8085.0,8114.984375,W,-0.039437500000000014,40.216188015993765,-218.52,131.62,350.14,5.975,53.48518724958074,1046.875,1035.8968098958333,0.06441510347391793,0.03225804701500421,0.31413461374951274,64.16123204854216,0.17032423920922102,64.9307323229917,0.11041666666666666,78,3.4328780416666667,0.006658570778072233,9.45709566435975e-06,30.272000000000002,0.016613247725835792,2.2708339493364177e-05,61.345333333333336,0.4707846877525041,1.4799999999999969,-0.0007581946501179073
S098,8115.0,8144.984375,W,0.44695312499999973,36.893659026906455,-79.22,57.78,137.0,6.895,16.818995535491695,1046.875,1043.1803385416667,0.045595976308831845,0.0,0.4782600118020414,64.2909314600033,0.256350031191341,64.63745044476924,0.353125,152,3.4486338,0.006372145982843377,8.240177582513487e-06,30.319999999999997,0.016931233465600663,2.1180561301150406e-05,59.66466666666667,0.5172023029939279,1.8300000000000054,-0.0009250696953856602
S098,8145.0,8174.984375,W,-0.0317604166666668,35.363706547180534,-86.58,61.28,147.86,5.42,48.95088463792314,1031.25,1040.6412760416667,0.1767275838370708,0.12801909579781015,0.46636429936501594,64.46366447070815,0.2632419823882824,65.18435395092905,0.00625,6,3.461133516666666,0.0055635420896273605,6.13179636821728e-06,30.359333333333336,0.016110727964793067,1.4305559436186964e-05,57.26033333333333,0.4670865967771812,1.6299999999999955,-0.0005935071054435509
S098,8175.0,8204.984375,W,-0.10591145833333322,38.55128498726396,-98.66,73.84,172.5,5.725,14.342693200353791,1046.875,1041.8294270833333,0.0,0.3013838885273878,0.045595976308831845,64.55374330484047,0.24718481499451866,64.63745044476924,0.0,0,3.466801825,0.0051093348778852845,2.8330040237098527e-06,30.394000000000002,0.01583245611605022,1.8611116159699083e-05,57.34833333333333,0.08128482159802236,0.25,0.00013496531438946335
S098,8205.0,8234.984375,W,-0.2476666666666669,42.9232948842726,-83.8,64.82,148.62,7.21,21.800503202827166,1062.5,1049.8453776041667,0.045595976308831845,0.40155405579102577,0.07198059875565237,64.47475388774163,0.3305088730205597,65.18435395092905,0.004166666666666667,3,3.4804117833333335,0.006852293314629956,9.426861932199987e-06,30.42066666666667,0.016110727964792418,1.4305559436186606e-05,57.21133333333333,0.08057019024152569,0.25,-0.00014131948277980853
S098,8235.0,8264.984375,W,-0.03349479166666658,44.22360711162664,-115.1,101.14,216.24,5.130000000000001,49.16346369833205,1046.875,1060.3434244791667,0.9324377213340668,0.431803187870997,0.512972977886425,64.47706736476238,0.40372313932695064,65.18435395092905,0.06354166666666666,47,3.4978326749999997,0.007042040834827269,9.03046968057441e-06,30.436666666666664,0.011925695879998624,3.194445310993126e-06,57.12466666666667,0.11996480965498013,0.4200000000000017,-0.00018020838221798597
S098,8265.0,8294.984375,W,0.3606406250000005,44.31849367969896,-91.01,66.03,157.04000000000002,7.605,20.205365189121782,1031.25,1031.7952473958333,0.42746299181917496,0.496208497774765,0.33071891388307384,64.45896582633834,0.4159021506849705,65.00769185258002,0.10416666666666667,84,3.5161075416666665,0.005825476704236053,6.734491193167063e-06,30.465333333333337,0.013349989596333572,1.4583337289316444e-06,56.925666666666665,0.1409889672594584,0.4099999999999966,0.000245729233324986
S098,8295.0,8324.984375,W,-0.4609374999999999,49.453742042819776,-168.1,85.83,253.93,8.26,35.04683434010713,1046.875,1049.2513020833333,0.46991060024458076,0.47889031886226296,0.21182234678433295,64.3504443085763,0.40117613191506835,65.00769185258002,0.32708333333333334,197,3.531895108333333,0.006434131338411635,7.915654708022678e-06,30.464666666666673,0.012578641509408536,-4.027778870382637e-06,57.364333333333335,0.09918613254325838,0.3499999999999943,0.00017746532591832772
S098,8325.0,8354.984375,W,0.42649479166666643,46.084933586836144,-109.12,86.34,195.46,7.445,21.813144726532435,1046.875,1041.5852864583333,0.49749371855330987,0.3968408231128558,0.16349853465194522,64.27035814832006,0.3326361676100632,65.00769185258002,0.18645833333333334,112,3.545836008333333,0.005787040696671362,6.616091855493654e-06,30.462666666666667,0.01412641340027776,4.513890113359852e-06,57.62833333333334,0.0640355803874353,0.23000000000000398,-4.0173622008904164e-05
S098,8355.0,8384.984375,W,-0.4647343749999998,46.30892217547762,-97.63,67.02,164.64999999999998,7.54,26.21204715609049,1046.875,1053.7679036458333,0.4112552241309525,0.25124473114984036,0.12908263395549724,64.21604100837173,0.21907505057456197,65.00769185258002,0.07604166666666666,63,3.561335575,0.006834779541266012,9.250027899855667e-06,30.465333333333334,0.013349989596333572,-1.3194448023667264e-06,57.27033333333334,0.0491584738936789,0.22999999999999687,-6.0381960824098456e-05
S098,8385.0,8414.984375,W,0.41184895833333307,46.89923085687835,-109.64,72.68,182.32,8.125,17.662825733686937,1046.875,1047.7132161458333,0.436561493377508,0.17950549357115014,0.23090251670829018,64.13108333829197,0.20408296609072696,65.00769185258002,0.08854166666666667,71,3.579023241666667,0.007062679570573565,1.022272043802093e-05,30.470000000000006,0.010327955589886225,2.77777853129837e-07,56.95933333333333,0.09909367061298956,0.3100000000000023,-0.00015979171001294308
S098,8415.0,8444.984375,W,0.3019739583333333,50.71322220964409,-177.69,82.39,260.08,9.684999999999999,35.634785659676155,1046.875,1050.1546223958333,0.4427647022936926,0.16532992583014122,0.15644432360711874,64.18703954635514,0.17379377043397604,65.00769185258002,0.052083333333333336,48,3.596678808333334,0.006219996048090703,7.613879886577673e-06,30.470000000000006,0.012649110640673622,-6.111112768856156e-06,56.85333333333334,0.10587204016589447,0.29999999999999716,-0.0001504167074698093
S098,8445.0,8474.984375,W,-0.6054999999999999,47.33378523801296,-105.85,76.76,182.61,6.895,16.50919431379369,1046.875,1044.8404947916667,0.4141054092022411,0.12801909579781015,0.20024941045828049,64.19500745372228,0.16449827721474927,65.00769185258002,0.057291666666666664,51,3.614804316666666,0.0060275605029222684,7.867833731508678e-06,30.46133333333334,0.011175369742826569,2.0138894351913187e-06,57.19533333333332,0.09425968856774844,0.3299999999999983,0.00015027781854324538
S098,8475.0,8504.984375,W,0.6756770833333331,48.313669774108014,-116.8,79.4,196.2,9.870000000000001,21.89366437511862,1046.875,1052.1565755208333,0.24016912082368586,0.19741988090108856,0.1629667442217038,64.23097984408011,0.1825146643571765,65.00769185258002,0.065625,54,3.6304532000000003,0.0062007021357800155,7.751958266047719e-06,30.458666666666666,0.012310790208412664,4.0972233336650955e-06,57.09166666666667,0.06017105247172888,0.19999999999999574,-8.211807783151115e-05
S098,8505.0,8534.984375,W,-0.6578697916666665,47.455232858120745,-104.72,88.61,193.32999999999998,6.470000000000001,26.32652129418351,1062.5,1063.5904947916667,0.1821904480893551,0.1462753717308556,0.1428261375083551,64.21896003416941,0.14493261566560456,65.00769185258002,0.042708333333333334,35,3.6455575583333326,0.005572925676572128,6.06808346030908e-06,30.466666666666672,0.010434983894998796,2.84722299458083e-06,56.812666666666665,0.14104215287951535,0.37999999999999545,-0.00023659728640334192
S098,8535.0,8564.984375,W,0.33792187500000004,46.5121344640315,-99.78,73.16,172.94,8.96,22.012043630584426,1046.875,1058.5856119791667,0.16232629604869594,0.139283726964862,0.1465717910464205,64.21788045139904,0.14170508042282784,65.00769185258002,0.040625,35,3.6618043416666666,0.006871785885653297,9.558869129467549e-06,30.47133333333334,0.011469767022723258,5.1388902829019835e-06,56.72900000000001,0.01868154169226835,0.04999999999999716,1.4895837374089304e-05
S098,8565.0,8594.984375,W,-0.5304687499999999,46.88837896835711,-98.24,69.34,167.57999999999998,7.575,20.489816994975897,1062.5,1050.3743489583333,0.38522517765587444,0.11987768650679834,0.2948763129357046,64.22739038884652,0.19265384857619913,65.00769185258002,0.10625,81,3.6767593583333333,0.005967500551313811,7.83420937342917e-06,30.490000000000002,0.017126976771554524,1.1527780904889274e-05,56.834666666666664,0.08913410620457803,0.25,9.354169204147562e-05
S098,8595.0,8624.984375,W,0.11418749999999994,43.230571685997596,-89.32,66.03,155.35,7.175000000000001,57.121901558194864,1031.25,1039.892578125,0.3992166265707824,0.1592592172022985,0.20912350152216008,64.20956598661137,0.18362773301555488,65.00769185258002,0.071875,63,3.6913086333333336,0.00561593800555369,6.203659234933615e-06,30.507333333333335,0.013399834161495613,3.888889943818002e-06,56.89633333333334,0.11571468743806505,0.3400000000000034,0.0002042014442820774
S098,8625.0,8654.984375,W,0.6111666666666667,49.87585146196058,-117.33,127.35,244.68,6.85,39.01786458076094,1046.875,1045.6705729166667,0.3869395588747966,0.13564084008881688,0.2273030282830976,64.20856965910777,0.1802747851765154,65.40642170307133,0.06875,55,3.7048548,0.006071911207354756,8.187593800888119e-06,30.50466666666666,0.01024152766382612,5.555557062594397e-07,57.28733333333334,0.07907521033098115,0.2700000000000031,0.00011055558554567667
S098,8655.0,8684.984375,W,-0.7126510416666666,46.34489672219292,-92.54,64.67,157.21,6.6850000000000005,37.29863586516502,1046.875,1055.3304036458333,0.302757867592056,0.17116012950028858,0.139283726964862,64.21405964076631,0.16571396674015657,65.00769185258002,0.05,41,3.7222756,0.007371553227780428,1.0264487159420334e-05,30.51333333333333,0.014681810363697643,3.6805565539701918e-06,57.087,0.11877569897359788,0.36999999999999744,-0.00020607644479070288
S098,8685.0,8714.984375,W,0.03365625000000006,46.75803825242425,-97.07,74.9,171.97,8.03,19.026391620064782,1031.25,1034.4807942708333,0.3068216744797465,0.21137108216357317,0.12827311899051785,64.22416869864024,0.18794050990695646,65.00769185258002,0.0625,52,3.73967505,0.006101650138623686,8.6097119709505e-06,30.522666666666662,0.014126413400278032,7.2916686446581355e-06,56.94000000000001,0.10356962231594197,0.37000000000000455,0.00010416669492369199
S098,8715.0,8744.984375,W,0.5302812500000003,49.97506158829853,-116.5,129.94,246.44,8.29,58.088597003978016,1046.875,1044.6044921875,0.24016912082368586,0.139283726964862,0.12447371850002004,64.20755029668845,0.1364181007802107,65.56675987114203,0.03229166666666667,29,3.7586757500000005,0.007294417437613967,1.0823964307716009e-05,30.53866666666666,0.009910712498212126,7.708335424352977e-06,57.52233333333333,0.13848425502160502,0.45000000000000284,0.00023621534185529043
S098,8745.0,8774.984375,W,-0.4530624999999999,52.81484074592034,-108.01,115.93,223.94,7.535,15.963005318273645,1031.25,1022.2005208333334,0.3234941073651883,0.2068462551362458,0.08538490263051322,64.21143249385044,0.1833132683496603,65.00769185258002,0.04791666666666667,39,3.776214108333334,0.006857592413760356,1.0274935295935122e-05,30.56266666666666,0.019652537297311146,1.770833813702711e-05,57.65633333333334,0.05793578821035843,0.17999999999999972,0.00010121530523418566
S098,8775.0,8804.984375,W,-0.014890625000000076,51.61823702461857,-116.14,88.58,204.72,9.23,40.65766610668392,1031.25,1032.373046875,0.3388075878684275,0.20453835214941965,0.11625205344661899,64.21191988787139,0.18306004547865382,65.56675987114203,0.052083333333333336,41,3.7919590416666664,0.005868301655782849,7.663148563137076e-06,30.587999999999997,0.013012814197295145,1.409722604633923e-05,57.928333333333335,0.09825420545141475,0.3299999999999983,0.00017281254687840283
S098,8805.0,8834.984375,W,0.6869375000000003,53.16298302739505,-116.72,88.45,205.17000000000002,10.445,19.160833092971846,1015.625,1021.0530598958334,0.2021987428181051,0.09090593428863095,0.13615185047912087,64.20305922798907,0.11857810643336983,65.56675987114203,0.022916666666666665,20,3.8074477333333334,0.006056371830193014,7.808136232675801e-06,30.616000000000003,0.014742229591663674,1.6597226724507763e-05,58.23966666666667,0.07259400036427842,0.21000000000000085,0.00012538197845648238
S098,8835.0,8864.984375,W,-0.4319062499999998,49.51663689495727,-124.96,87.99,212.95,6.210000000000001,19.084432731288324,1000.0,1008.2763671875,0.4530842893589325,0.04559597630883184,0.34546761536197407,64.22793466391312,0.21289780359185145,65.00769185258002,0.140625,108,3.822061325,0.005323132077957003,5.8804037218977015e-06,30.656666666666663,0.013984117975603248,1.2638892317409312e-05,58.466333333333324,0.19720519488311783,0.5499999999999972,0.00034065981463210894
S098,8865.0,8894.984375,W,0.3858906250000001,59.844973660583676,-174.8,146.34,321.14,8.780000000000001,25.11145727257519,1015.625,1024.8128255208333,0.2732186624299299,0.045595976308831845,0.22838645595544604,64.21466407176733,0.140094551664516,65.00769185258002,0.057291666666666664,46,3.834945316666667,0.005252921054015773,6.067688711938145e-06,30.678000000000004,0.016000000000000486,1.6527782261226044e-05,58.78966666666667,0.07092170957392986,0.21999999999999886,-9.385419212624514e-05
S098,8895.0,8924.984375,N1,-0.6033333333333329,54.982117450181526,-137.94,133.8,271.74,6.15,29.76451387776216,1015.625,1013.7451171875,0.3271413828530411,0.09636964965693294,0.17714153455327433,64.19979537299433,0.1362561276421895,65.00769185258002,0.040625,34,3.846420733333333,0.004843131514033268,4.687848927910414e-06,30.72266666666667,0.021592179654268403,3.0347230454434696e-05,58.75466666666667,0.10455407957394848,0.28000000000000114,-0.00017750004814996945
S098,8925.0,8954.984375,W,-0.05103124999999989,51.1127149561293,-134.57,92.61,227.18,9.690000000000001,15.438029291755019,1000.0,1006.15234375,0.2599996661322643,0.11987768650679834,0.09119195261766372,64.19731034026303,0.11695473179967117,65.00769185258002,0.020833333333333332,20,3.8637026333333333,0.007607005087344748,1.1930406882163318e-05,30.784,0.02484619353811177,3.56250096639016e-05,58.784,0.14636939570825544,0.36999999999999744,0.00023312506323922024
S098,8955.0,8984.984375,W,-0.13862500000000022,49.981258759377745,-113.47,78.83,192.3,7.965,22.55668540321317,1000.0,1007.0475260416666,0.28408104465197176,0.12801909579781012,0.13591255358583407,64.20351302269518,0.13524253993634522,65.00769185258002,0.034375,31,3.884464625,0.007348815829849152,1.077602874783766e-05,30.845999999999997,0.023323807579382228,3.222223096306338e-05,58.598333333333336,0.10724064320748754,0.3200000000000003,0.00013024309088625674
S098,8985.0,9014.984375,N1,0.9040312500000002,53.65870493509439,-174.12,152.57,326.69,9.085,17.459176828405933,1000.0,1008.4065755208334,0.35189066473914243,0.06441510347391795,0.24446787095762817,64.20950453848616,0.15793539435609774,65.56675987114203,0.065625,59,3.9038282666666664,0.00612275378912317,9.459680951519348e-06,30.91466666666667,0.025655841873191264,4.034723316710882e-05,58.662666666666674,0.05272149045271336,0.19999999999999574,-4.1041677799936324e-05
S098,9015.0,9044.984375,N1,-0.27937500000000015,53.46782635988714,-138.45,138.86,277.31,5.16,88.59015801182522,1000.0,968.6279296875,0.04564354645876384,0.07880950133074056,0.12478714516015753,64.20428255203734,0.0951856684838462,65.00769185258002,0.01875,18,3.9176199166666663,0.004960927001047497,5.938093624699885e-06,31.000666666666667,0.030868898407441513,5.055556926963286e-05,59.24566666666668,0.10898572791374501,0.4899999999999949,0.00010649308444365305
S098,9045.0,9074.984375,W,-0.33841666666666675,57.25181672784619,-149.0,170.48,319.48,7.115,39.77953820858701,1000.0,1011.2955729166666,0.19741988090108858,0.05581428468591173,0.34437443284889774,64.26875173019302,0.2001275663448456,65.00769185258002,0.140625,106,3.94903025,0.01847125358597786,3.172622258198313e-05,31.093999999999998,0.03072458299147378,5.0833347122760175e-05,59.618333333333325,0.12495554765151064,0.39000000000000057,0.00017170143546588488
S098,9075.0,9104.984375,N1,-0.36275000000000013,62.42546937181704,-147.72,120.86,268.58,7.97,22.615170415411967,1000.0,1004.1097005208334,0.2304038573895845,0.0,0.37727176461405115,64.28310632237094,0.21878424703892568,64.76109943476871,0.171875,123,3.9889065166666664,0.009097157661401116,1.4094970837394442e-05,31.199333333333335,0.03335998934185813,5.680557096505293e-05,59.521,0.04429823171790644,0.10999999999999943,4.517362336524016e-05
S098,9105.0,9134.984375,W,0.5663645833333334,57.71961401999393,-125.99,95.24,221.23,10.28,18.430049849376253,1000.0,995.1009114583334,0.4944999139843763,0.06441510347391795,0.318518434404597,64.1693805013513,0.1989080343475718,65.00769185258002,0.11875,96,4.015112591666667,0.006771440217924888,9.64974068189579e-06,31.326666666666664,0.04955356249106217,8.534724537414519e-05,59.30333333333333,0.2580223935156714,0.730000000000004,-0.0004231251147800356
S098,9135.0,9164.984375,W,0.13791666666666652,59.224431752351066,-116.01,94.7,210.71,9.405000000000001,15.076078408889103,984.375,989.9739583333334,0.4994256684071103,0.0,0.2986060642338368,64.17314160482567,0.18702914298321913,64.76109943476871,0.09895833333333333,75,4.031508566666667,0.006527497672326093,7.396782388450148e-06,31.468666666666667,0.038964371189873705,6.583335119177352e-05,58.971333333333334,0.06790843508398295,0.25,8.71528014194877e-05
S098,9165.0,9194.984375,N1,-0.03604166666666657,60.346966073959315,-144.83,112.7,257.53000000000003,6.33,14.5631104988483,968.75,976.6764322916666,0.4155075021885886,0.0,0.38888640872225,64.26023152494763,0.21587656996393398,64.76109943476871,0.18125,112,4.043869849999999,0.004704906967996279,5.335831742575851e-06,31.58733333333333,0.038204130085051184,6.194446124795402e-05,59.603,0.5167794500558234,1.6299999999999955,0.000843646062186973
S098,9195.0,9224.984375,N1,-0.01890104166666665,58.041047831026795,-158.27,127.15,285.42,4.645,79.61895556541262,953.125,933.30078125,0.31080093664952524,0.04559597630883186,0.44635750922513523,64.44146375785166,0.25174142585220227,65.40642170307133,0.011458333333333333,10,4.055536933333333,0.006525184866772379,8.898849636189629e-06,31.713333333333335,0.04353797831268167,7.381946446925535e-05,61.260999999999996,0.28013508646127594,0.8999999999999986,0.0005045487479787183
S098,9225.0,9254.984375,N1,-0.07283333333333317,61.726984369626024,-159.26,151.53,310.78999999999996,10.425,17.892685743287558,968.75,971.0123697916666,0.8633751598619609,0.11180339887498948,0.5580835495370644,64.4869123201724,0.473917444004788,76.06576102294646,0.008333333333333333,3,4.073342075,0.00602606234778361,8.498257296619356e-06,31.865333333333336,0.04780051138731592,8.409724503506047e-05,61.73000000000001,0.022803508501981547,0.04999999999999716,-2.5000006781684048e-05
S098,9255.0,9284.984375,N1,0.6275156249999996,89.76242990600224,-629.42,413.39,1042.81,5.075,54.573885048962715,984.375,953.7027994791666,21.30645622903843,16.0731724906731,15.461096977519542,64.53327122519528,5.695176026724881,110.00454536063498,0.08229166666666667,42,4.080408691666666,0.03869777366416918,-5.117690841387454e-06,32.16866666666667,0.15707181655394314,0.00027881952007907993,73.17966666666666,7.47562014521575,20.919999999999995,0.013340593896645478
S098,9285.0,9314.984375,N1,-0.9487968749999997,48.109626712943225,-100.57,79.36,179.93,6.465,40.83550762044879,1015.625,1024.1455078125,0.3410547747430022,0.2763853991962833,0.32069802341489767,64.25501301009528,0.20044468684435174,65.18435395092905,0.10729166666666666,52,4.104533283333334,0.008874925048681922,1.4715306075115554e-05,32.553333333333335,0.0966551717303437,0.0001725000467936326,82.07033333333332,0.42396134519814616,1.3100000000000023,-0.0007617015955136697
S098,9315.0,9344.984375,N1,0.24566145833333328,44.68784495531165,-94.7,69.67,164.37,7.135,20.105488985681152,1000.0,1004.1585286458334,0.10703853634971328,0.2699987139887069,0.26785015698562176,64.26614837882543,0.24513102100250364,65.56675987114203,0.10729166666666666,81,4.127675541666666,0.0070158434998887,9.167472321905446e-06,32.82966666666667,0.05516540784062221,9.635419280441357e-05,69.18866666666666,7.844098730184934,22.11,-0.014005142688026984
S098,9345.0,9374.984375,N1,-0.4245052083333333,50.914740097876845,-117.36,78.62,195.98000000000002,9.395,17.389012063429423,984.375,992.1630859375,0.25693294831639546,0.032258047015004204,0.494694069321861,64.4029366316645,0.2837308897632021,65.5133574166368,0.353125,148,4.141851408333333,0.005176706106035376,5.015712081085113e-06,32.92733333333333,0.015260697523014292,-5.000001356337239e-06,59.47833333333334,0.270765376089501,0.7700000000000031,0.00048295151989787336
S098,9375.0,9404.984375,N1,0.4726718750000002,56.3802511781667,-121.6,94.74,216.33999999999997,9.96,15.436431226572044,984.375,993.3186848958334,0.5495016286878097,0.09654963281764578,0.47942022276912766,64.4646513382044,0.2707603683602818,65.40642170307133,0.17291666666666666,65,4.149910591666667,0.005917179265347947,6.505110488582478e-06,32.94866666666666,0.04333846123505436,7.326390876299782e-05,60.06366666666666,0.11706076294908711,0.3200000000000003,0.00019836810936635027
S098,9405.0,9434.984375,N1,0.005317708333333352,63.785642675806976,-170.65,105.67,276.32,12.08,13.43833181482857,984.375,984.6923828125,0.51213465127998,0.09128709291752768,0.33134170638313687,64.59842560374625,0.22974881340735892,65.40642170307133,0.005208333333333333,5,4.165132591666667,0.007426438665892558,1.074741545882583e-05,33.06966666666667,0.03209188197798553,5.27430698630308e-05,60.31066666666667,0.10029733573508057,0.3299999999999983,0.00017833338170935838
S098,9435.0,9464.984375,N1,0.148796875,63.78144497978029,-138.65,133.69,272.34000000000003,9.29,18.42738152279412,968.75,972.5992838541666,1.010899261899193,0.21620292920592502,0.5384832334514542,64.51734779162688,0.31351597661592817,65.83312236253116,0.2604166666666667,92,4.185179275,0.007928197299262994,1.1382436898447439e-05,33.18533333333333,0.045587522659409525,7.847224350917958e-05,60.776666666666664,0.1639783183499841,0.529999999999994,0.0002897917452777076
S098,9465.0,9494.984375,N2,-0.17291145833333338,58.95907202964042,-178.68,95.5,274.18,9.695,44.280728748896614,984.375,983.7809244791666,0.5734883511361751,0.17714153455327436,0.48059569517654044,64.64238643490789,0.3168874669380746,65.62011886609167,0.009375,7,4.207777475,0.007565583533302325,1.1438036305890958e-05,33.309666666666665,0.017220788470785422,2.2187506018745097e-05,60.208999999999996,0.25946547618774535,0.9500000000000028,-0.0003056598051377505
S098,9495.0,9524.984375,N2,0.16757291666666713,61.455808777060284,-129.16,102.53,231.69,8.895,26.193657156542244,968.75,967.3583984375,1.8908118020663331,0.22935361692640086,0.3829651764702489,64.61058475412912,0.27088631594262236,65.49045732013177,0.08333333333333333,59,4.226884916666667,0.007665044499309108,1.1284555144464826e-05,33.25633333333334,0.040289232087770945,-6.913196319769066e-05,60.34466666666667,0.10594757613503354,0.3200000000000003,0.00011673614277781537
S098,9525.0,9554.984375,N2,0.25426041666666666,62.826399260472904,-137.35,98.07,235.42,10.79,20.24304505731984,968.75,962.0279947916666,0.6362323998875463,0.47999927661982533,0.5940642443279084,64.49312627087536,0.48861758283853507,68.47627326307996,0.25833333333333336,156,4.245490516666666,0.005961733212726175,8.398235785111713e-06,33.15733333333333,0.02293953404544651,-3.687501000298536e-05,61.573666666666675,0.38853128002202814,1.2999999999999972,0.0006105904434110366
S098,9555.0,9584.984375,N2,-0.055588541666666796,67.33565481327693,-169.68,113.18,282.86,10.149999999999999,20.647348889136655,953.125,952.5797526041666,0.6402302306700995,0.2645423196558329,0.4377181995556298,64.30168876650185,0.3737603188251334,68.9129886160802,0.10416666666666667,72,4.260595008333334,0.0058610542289703445,7.442007444121044e-06,33.10400000000001,0.014742229591663271,-8.125002204048732e-06,62.156333333333336,0.1423255267179979,0.4399999999999977,0.00024163200999132193
S098,9585.0,9614.984375,N1,-0.17862500000000012,73.95534260538726,-156.83,126.47,283.3,10.315,49.4461156649571,953.125,932.5927734375,1.3103649135249393,1.0272143256562056,1.569442562375961,64.33454491242968,0.7969196387127176,71.93052203341777,0.03229166666666667,14,4.269230650000001,0.004794083472799267,3.757596939452263e-06,33.09000000000001,0.01549193338482995,-1.6388893334660284e-05,62.448333333333345,0.14957903893557106,0.5600000000000023,0.00021635422535650815
S098,9615.0,9644.984375,N2,0.19119791666666697,66.87354658484796,-165.52,139.25,304.77,10.405000000000001,40.75358898451665,968.75,977.3193359375,0.6487760578688835,0.2499218627891526,0.46991060024458087,64.44608678320256,0.374753250272784,68.76772498781678,0.2604166666666667,52,4.281068858333333,0.005577566832553185,5.6407296117430436e-06,33.08066666666668,0.01236482466066231,2.5000006781683604e-06,62.889,0.10303235737702315,0.3200000000000003,-0.00015065976309129828
S098,9645.0,9674.984375,N2,-0.8852656250000003,68.28074755827548,-142.08,131.2,273.28,7.91,24.638158794807495,984.375,984.2936197916666,0.32196600655193397,0.47981726664950275,0.2505008004810896,64.37188194166924,0.3782947983588893,65.55913361233506,0.321875,144,4.289159983333334,0.004691879912826927,4.8141080767437265e-06,33.09600000000001,0.013808210118137825,8.12500220404782e-06,62.431666666666665,0.265933366758584,1.0999999999999943,-0.00043996539712603015
S098,9675.0,9704.984375,N2,0.13143749999999996,66.65827456462996,-246.0,140.95,386.95,10.265,72.92095171735319,984.375,967.7571614583334,1.1480163863220285,0.7785508930413962,1.1835020419641586,64.41006977486113,0.44040125361498034,67.66091929614909,0.08020833333333334,34,4.295927733333333,0.005223232871401456,4.460030723749636e-06,33.14433333333333,0.0352782589643464,5.142362506066014e-05,61.28633333333333,0.1696954788895557,0.5499999999999972,0.00010239586110998913
S098,9705.0,9734.984375,N2,0.32083854166666714,72.41440308992242,-199.67,133.03,332.7,11.855,19.975312148546205,1000.0,992.9036458333334,1.6036657091168416,0.5116004554744519,0.8215600632333585,64.44445080503644,0.32953568937448924,66.34003316248794,0.29375,95,4.307200150000001,0.0046047991788459395,3.3867869430303133e-06,33.385,0.0727896512791028,0.00012420142258068187,61.177,0.14944675752030634,0.3999999999999986,-0.00024024312072567247
S098,9735.0,9764.984375,N2,0.11109895833333366,65.92766521355841,-181.71,186.03,367.74,8.48,46.51414717422225,984.375,984.4319661458334,2.735979886165101,1.0248851349934565,1.3180372613178364,64.31990166812095,0.5675600437405641,70.49822692805827,0.040625,21,4.311555275000001,0.004767054868159383,-1.0658568429516315e-06,33.43533333333333,0.013597385369582885,-1.361111480336443e-05,60.51233333333334,0.6198047183499724,1.5100000000000051,-0.0010514238963280963
S098,9765.0,9794.984375,N2,0.08023958333333349,60.557375593702595,-131.06,119.83,250.89,8.94,36.78843061847296,1000.0,982.470703125,0.5299606494170634,0.6035907815707776,0.7398261045208905,64.3943164660951,0.4058512014608381,65.40642170307133,0.234375,100,4.321674858333334,0.007237535775727164,1.085542026242948e-05,33.542,0.07922120928135365,0.00013895837102820418,59.82366666666667,0.10897961073317994,0.3299999999999983,0.00010954864082808031
S098,9795.0,9824.984375,N2,0.25863541666666634,64.76498254998926,-135.6,164.32,299.91999999999996,9.825,36.54026090556061,984.375,985.4817708333334,0.30417915214100755,0.24767801889079027,0.3854096283141123,64.41224805561735,0.2865171692655997,66.58828725834597,0.146875,95,4.333032475,0.0042763425668876425,3.728152704034517e-06,33.67733333333333,0.022647050335285013,3.6041676443598736e-05,60.34866666666667,0.4091840118523145,1.1599999999999966,0.0007186113060469026
S098,9825.0,9854.984375,N2,-0.624307291666667,67.36015445473673,-175.64,122.16,297.79999999999995,6.98,35.467548844831654,984.375,984.7493489583334,0.549596403369984,0.48246599621113195,0.5004815389535695,64.42825206554832,0.3525537001679792,65.55913361233506,0.30416666666666664,145,4.344955991666667,0.005084115430265467,6.510788441511523e-06,33.76533333333334,0.020450482200237916,3.173611972008535e-05,60.789333333333325,0.1019782111804062,0.3299999999999983,9.375002543132147e-06
S098,9855.0,9884.984375,N1,-0.17311979166666683,68.91706383329398,-144.7,120.01,264.71,9.57,25.04768063249119,984.375,978.5807291666666,0.43451236836698776,0.33993463423951903,0.24971989516589715,64.22110796140934,0.3050282101829296,65.55913361233506,0.16770833333333332,96,4.357434466666666,0.0055416240563775,6.789343421588289e-06,33.777333333333324,0.009637888196532055,-3.472223164122344e-07,60.65833333333333,0.26468954561061747,0.7999999999999972,-0.0004044792763886913
S098,9885.0,9914.984375,N1,0.7063645833333336,72.3174094243305,-194.38,132.05,326.43,10.985,30.15649557150918,968.75,980.0211588541666,1.2412257151870754,0.8714654553856714,1.0232009109489038,64.25393202582922,0.5486066169120346,69.18092222571191,0.15,91,4.363145308333333,0.003615454777285597,2.245889715139348e-06,33.78,0.014375905768564333,-1.5972226554958847e-06,60.241,0.06262853449772979,0.20000000000000284,3.2291675426348395e-06
S098,9915.0,9944.984375,N1,0.1327656249999997,65.55994693875014,-143.45,123.83,267.28,8.425,85.31408430343242,984.375,965.6087239583334,1.025031757638107,0.33675167810767226,0.4516126582100588,64.2904810257822,0.4326366530200909,71.70774016799024,0.06875,51,4.3734357416666665,0.0047579120919716954,5.016796282768134e-06,33.861666666666665,0.03812989494987958,6.468751754761162e-05,60.43699999999999,0.17684550696394097,0.6499999999999986,0.00017781254823474076
S098,9945.0,9974.984375,N2,-0.9578020833333336,69.51526253923184,-136.69,112.91,249.6,7.155,71.84373848382054,984.375,966.6666666666666,0.6839229861919152,0.13653385314842453,0.3231517961165207,64.2579171923637,0.21955204241863296,66.2268827591938,0.08125,51,4.385241616666666,0.004390777378368047,5.003467503110694e-06,33.95133333333333,0.016275407487644767,1.7083337967484953e-05,61.23966666666666,0.0998827089918741,0.37999999999999545,0.0001413542050114474
S098,9975.0,10004.984375,N2,1.0131927083333332,71.23842144637399,-157.2,151.95,309.15,11.045,44.95618238067621,968.75,982.6741536458334,0.45051932803216727,0.04564354645876384,0.3806504279045131,64.29731668255516,0.24338054540533316,66.91038783328041,0.15416666666666667,95,4.395072975000001,0.004408181670603125,3.2472918965092795e-06,33.96866666666668,0.011469767022722984,5.833334915727021e-06,60.971999999999994,0.24376764893370625,0.8399999999999963,-0.00033395842392535384
S098,10005.0,10034.984375,N2,-0.2746458333333333,82.3695855509356,-291.23,179.72,470.95000000000005,7.140000000000001,99.45773248287232,968.75,934.3831380208334,1.1040880475155352,0.09668440031302304,0.30954155168930425,64.26693614421596,0.2027978515684182,66.1362230551458,0.06666666666666667,47,4.399759,0.004088578554950362,3.431173239793144e-06,33.97466666666667,0.011175369742827507,2.7083340680168855e-06,60.11866666666667,0.22779718074540736,0.75,0.00014715281769553398
S098,10035.0,10064.984375,N2,0.2246614583333334,72.74207460545941,-169.92,148.22,318.14,7.3,50.55601592547133,968.75,985.3515625,0.5989347821456764,0.23551574242618167,0.2955397604384222,64.24440180320993,0.27493080532809805,67.59437846448475,0.051041666666666666,32,4.407796841666666,0.004749760350087574,4.2587873965894505e-06,33.979000000000006,0.012741009902411646,4.1319455653067015e-06,60.003,0.26595927006467235,0.8800000000000026,9.364585873639742e-05
S098,10065.0,10094.984375,N2,-0.5401354166666669,69.85235247904441,-171.73,224.36,396.09000000000003,8.065,77.44817908592549,984.375,953.02734375,1.959330143027203,0.9626262543456601,1.0455630253268118,64.4407162275198,0.6772557992379526,72.56031973468694,0.03333333333333333,19,4.415803041666666,0.004054834483666491,2.5525495205483443e-06,34.004,0.02199999999999967,3.0763897234129316e-05,60.91966666666667,0.2555971222234102,0.6700000000000017,0.0004286459496109888
S098,10095.0,10124.984375,N2,0.22101562500000044,76.23491642107913,-172.86,185.1,357.96000000000004,9.715,30.15067088995826,968.75,970.0764973958334,0.4719738674939771,0.4958114490968875,0.5183262576553498,64.44558508012751,0.3383494446746289,65.67343450741707,0.140625,97,4.4268529,0.01182204766555555,1.617603346789107e-05,34.12433333333333,0.04279278236130674,7.30902976047884e-05,61.888333333333335,0.30719248399370397,0.9399999999999977,0.0005344098671901762
S098,10125.0,10154.984375,N1,-0.538546875,76.18615980242416,-232.25,199.18,431.43,9.66,43.107362909244856,968.75,956.396484375,0.7452511694425951,0.48658099809624017,0.5165984077894119,64.41123457775801,0.3371846710080398,65.60487786742691,0.13541666666666666,90,4.469635316666667,0.007285889459523027,1.0909356691991244e-05,34.212333333333326,0.02445176658012382,3.7534732404168905e-05,61.92033333333333,0.21113160719218652,0.6700000000000017,-0.0002372570088045291
S098,10155.0,10184.984375,N1,0.33135416666666634,73.52821111541405,-154.0,127.51,281.51,9.735,53.719370170378106,968.75,966.0725911458334,1.0521921354631747,0.7103402940375362,0.7804405528912643,64.49023130592556,0.5824369278152974,68.4178339323893,0.013541666666666667,7,4.482274091666667,0.005099524317678708,-9.437513410783299e-07,34.26933333333333,0.023935097428022356,3.4097231471688546e-05,62.16233333333333,0.06545651652475473,0.269999999999996,6.378473952493871e-05
S098,10185.0,10214.984375,N2,0.23485937500000015,77.95288851007099,-219.57,156.17,375.74,10.54,27.466898127000334,1000.0,988.9404296875,0.4786410160258126,0.10197698542100347,0.13653385314842453,64.23572187404282,0.13367368457338896,66.46803743153546,0.017708333333333333,14,4.488540125,0.004597670416566934,4.767344826211158e-06,34.322333333333326,0.012297244497130343,7.3958353395820785e-06,62.083333333333336,0.35882524375461106,1.1200000000000045,-0.000606944609088708
S098,10215.0,10244.984375,N2,0.31857812499999993,72.79437889105533,-145.23,116.38,261.61,11.885000000000002,40.95425247632044,968.75,975.3499348958334,0.16039975560212746,0.04559597630883185,0.33993463423951903,64.29105260423027,0.21196707314347,64.8459713474939,0.13333333333333333,96,4.5027051,0.005347139178102593,6.629753968574717e-06,34.324333333333335,0.010546194679703207,-8.854169068512845e-06,61.271333333333345,0.09372773809758195,0.4000000000000057,-0.00011743058741064127
S098,10245.0,10274.984375,N2,0.06188020833333342,77.74904246500553,-168.48,132.53,301.01,11.115,30.832682035629777,984.375,979.8258463541666,0.7131568305292711,0.3338472600689656,0.33705603515340493,64.29620003408323,0.31575757128632725,67.23094525588644,0.13125,84,4.5123656500000004,0.005208907066506393,5.131553041328428e-06,34.325333333333326,0.013840359661350143,-4.305556723512968e-06,61.12633333333334,0.14103151736008868,0.5,0.00024218756569758225
S098,10275.0,10304.984375,N2,-1.0352447916666663,82.72547949671196,-208.74,210.68,419.42,10.485,35.493892733860925,968.75,961.9710286458334,0.5261798498374867,0.3745135734077827,0.49209793056249373,64.52697309533704,0.3749353103974881,66.2872536767062,0.30520833333333336,168,4.5217483750000005,0.004565791623699203,1.3435587411997214e-06,34.33433333333334,0.008034647195463875,5.173612514544195e-06,61.283666666666676,0.17342593680172377,0.490000000000002,-0.00027920146462713367
S098,10305.0,10334.984375,N2,-0.019223958333333496,80.48309818858353,-166.66,141.51,308.16999999999996,10.469999999999999,31.18949012123241,968.75,965.9261067708334,2.312011960513084,0.5924794519995328,1.1949528552996929,64.47502273189039,0.6964089236093567,74.95331880577403,0.014583333333333334,6,4.5300532916666665,0.005941763634640059,7.277281270963928e-06,34.359666666666676,0.01722078847078421,4.201390028588928e-06,61.559666666666665,0.14556747194647904,0.5600000000000023,0.0002477431227601789
S098,10335.0,10364.984375,N2,0.2935052083333333,85.24136272566328,-215.09,178.7,393.78999999999996,10.695,36.31510529735258,953.125,965.8610026041666,1.742463932354284,0.3811475272122331,0.8951814488632396,64.30444908123776,0.5630231124626593,71.23903424387504,0.016666666666666666,10,4.541923191666667,0.005176347816906927,4.088315996179398e-06,34.40633333333333,0.028575436226864318,4.385417856287473e-05,61.592,0.08447484832777087,0.28999999999999915,2.0277783278477986e-05
S098,10365.0,10394.984375,N2,-0.5680416666666666,89.08490473406496,-198.12,145.6,343.72,10.15,24.632481083561274,968.75,956.0709635416666,0.4917008727507904,0.47920176501889283,0.206594304367817,64.21690977309042,0.40306020406191584,65.33758489567853,0.35104166666666664,179,4.551733241666667,0.005728546902714255,6.989653588773187e-06,34.47566666666667,0.01943936441576419,2.1770839239051426e-05,61.75,0.12013880860626695,0.30000000000000426,0.00020500005560982306
S098,10395.0,10424.984375,N2,1.3081145833333336,86.90173468605333,-166.4,142.72,309.12,13.545,30.36744319650116,953.125,959.130859375,0.5361406826544897,0.5024246764994286,0.2756305901423538,64.28911391597985,0.4238202034272941,65.40642170307133,0.36666666666666664,150,4.569047308333334,0.005987563193536886,6.106298748453471e-06,34.529666666666664,0.018526257642119306,1.684028234599513e-05,62.35099999999999,0.29777340378213774,0.759999999999998,0.000505868192781085
S098,10425.0,10454.984375,N2,-0.690567708333333,93.63562580356702,-302.28,163.97,466.25,10.55,32.77017497577347,984.375,986.1083984375,0.5842022917691554,0.38769596299448644,0.5941847823325296,64.58898145275732,0.5282990586516886,68.66585760041157,0.010416666666666666,3,4.5703816,0.004266713581903542,1.4024526373840597e-06,34.564,0.017243356208505013,1.3125003560385799e-05,62.159666666666666,0.28306045683249764,1.0,-0.0004887154103503176
S098,10455.0,10484.984375,N2,-0.27688020833333366,91.5251457740703,-197.15,208.37,405.52,8.65,34.39080905552122,968.75,965.2262369791666,1.7967632815511774,0.4531417621420721,0.6277638541658974,64.31639607316009,0.44738629139822295,68.2934843158555,0.04375,32,4.576637099999999,0.00450136189280533,2.7413227922425153e-06,34.582666666666675,0.012092238098145523,1.3125003560385848e-05,61.38333333333333,0.0637878427985222,0.20000000000000284,-8.590280108040488e-05
S098,10485.0,10514.984375,N1,0.9507864583333334,86.28160234055925,-295.29,150.52,445.81000000000006,13.86,42.978995286627885,1000.0,974.51171875,3.02666086608062,1.2478714516015752,2.077391526784384,64.3853284476777,1.203857280299877,83.38465086573187,0.022916666666666665,7,4.580266499999999,0.004675643362148145,2.799556314983772e-06,34.606666666666676,0.0207096327560114,2.4375006612142423e-05,61.555,0.3196326015912654,0.9500000000000028,0.0005279515321049091
S098,10515.0,10544.984375,N1,-0.06756250000000014,89.60445613568052,-181.08,158.97,340.05,8.375,41.13094446751185,968.75,963.2893880208334,2.4502116901175888,1.0622221859019054,1.9929538967008245,64.24616821951831,0.6338328717857772,74.60562981437795,0.025,11,4.591197075,0.005491249428503679,5.072193867240071e-06,34.66966666666666,0.025230052626888363,3.940973291279695e-05,62.06433333333333,0.15376786255767388,0.4399999999999977,-0.00024496534422888106
S098,10545.0,10574.984375,N2,-1.0604583333333335,89.54043961214265,-190.37,174.25,364.62,10.280000000000001,31.302784738917786,968.75,961.6536458333334,0.5217117592332209,0.10197698542100347,0.16409473889596013,64.32604453250393,0.16328340083653453,65.91661399070799,0.07916666666666666,33,4.599181675,0.004444435328142592,2.22365229591259e-06,34.75466666666667,0.016878651868231693,1.8125004916724915e-05,61.964333333333336,0.14892242574202488,0.5,-0.0002234375606113179
S098,10575.0,10604.984375,N2,-0.0157395833333332,80.71320407760957,-202.78,158.41,361.19,10.55,28.272556071593364,1000.0,989.4775390625,1.8965632180158287,1.017272168561863,1.1751477448483754,64.31532487020691,0.948368866219166,75.49834435270749,0.022916666666666665,8,4.599437891666667,0.0059406371723295754,6.9704604412056795e-06,34.80666666666668,0.039524956954083854,6.652779582459673e-05,62.254333333333335,0.22406373101319985,0.6499999999999986,0.00034614592723142566
S098,10605.0,10634.984375,N1,0.6102031249999998,87.44852941641818,-212.31,163.76,376.07,10.969999999999999,44.71590006641933,984.375,978.125,6.434119932481485,4.849956932619493,2.553782597551239,64.14310193733272,1.8744373885545276,87.89766777338293,0.035416666666666666,15,4.607881425,0.007009459351075153,6.369022778055273e-06,34.93233333333333,0.03537261966864039,5.656251534356563e-05,61.65366666666667,0.36109540136768437,1.1200000000000045,-0.000632396004881729
S098,10635.0,10664.984375,N1,0.7053593750000001,100.70380934006427,-560.35,293.84,854.19,12.425,25.92043313871992,1000.0,1007.9752604166666,5.127777025400209,1.8071892982535678,3.2665203450966835,64.05580864878873,2.11843181380975,89.15716460273958,0.029166666666666667,12,4.626700625,0.005948435503086066,6.493856579279631e-06,35.019666666666666,0.01888267871769085,2.2118061555462724e-05,61.85733333333334,0.48824811543130653,1.3900000000000006,0.0007395140894949246
S098,10665.0,10694.984375,N1,-1.2650677083333335,128.37210489714883,-795.99,572.51,1368.5,7.21,46.77402428812796,968.75,959.1064453125,12.066509075786655,6.496452023134543,9.36943579090708,64.69724824803575,6.958764435254821,172.4934781375806,0.04375,16,4.65680625,0.03336447826387871,9.641177094503377e-06,35.044999999999995,0.0403112887414931,5.8229182462343704e-05,63.297999999999995,1.9809819114099283,6.079999999999991,0.0030797925021138505
S098,10695.0,10724.984375,N1,0.6486614583333338,89.2240358622723,-326.97,149.02,475.99,12.22,31.116007597416644,984.375,990.966796875,3.241868667388798,1.0101567535123779,2.4775020672151933,64.45229874582681,1.1841571033261635,79.15175298121956,0.017708333333333333,6,4.65770945,0.00597886921980236,-3.526703647651802e-06,35.12233333333334,0.018917951498216193,2.420139545393687e-05,66.967,0.731956965948135,2.069999999999993,-0.001090451684692839
S098,10725.0,10754.984375,N1,-0.4938541666666667,93.86853106173051,-264.54,231.26,495.8,7.215,55.25451204355808,984.375,979.8258463541666,1.2011984033317171,1.0427031301901484,1.4304476766227963,64.43443863505199,0.8036330748871339,72.62231062146122,0.04375,26,4.658659433333335,0.0042676090627214724,-2.2286507781703167e-07,35.17733333333333,0.026574841903993094,3.6597232149856835e-05,65.783,1.87802050042059,5.690000000000005,-0.0029029521763650657
S098,10755.0,10784.984375,W,1.8292968749999996,93.28215736954218,-178.99,189.22,368.21000000000004,13.105,18.562094119194555,984.375,986.4339192708334,13.700512230324234,17.590474334889006,8.332936904633158,65.21569705834659,7.112953478968122,139.67462188959024,0.046875,19,4.661071941666667,0.007288622369025876,4.297744004379408e-06,35.23300000000001,0.02084066537645464,2.5659729182870724e-05,61.15133333333333,0.11937987919057164,0.45000000000000284,-2.8541674409091608e-05
S098,10785.0,10814.984375,W,-1.6590052083333329,101.83253523146048,-439.86,418.88,858.74,4.26,44.26841280434751,984.375,959.6842447916666,2.620031673896753,1.6969485353413705,1.1808103789523814,64.00147832527408,1.4106519223888203,92.62289133902051,0.023958333333333335,14,4.6659715833333335,0.005668591576372586,3.326184062007429e-06,35.47666666666667,0.10643725329455311,0.00018291671628600187,63.693333333333335,1.23682478773493,3.809999999999995,0.002091945011920847
S098,10815.0,10844.984375,W,0.8323020833333331,92.40730796154821,-176.97,151.24,328.21000000000004,10.97,21.453463733305238,984.375,987.2151692708334,0.5150343839654462,0.5359311730271175,0.44661997384987906,64.03534893626453,0.4307492822701127,65.81033353509159,0.2520833333333333,160,4.669803841666666,0.004767189579119375,-1.2926576857252678e-06,35.55333333333333,0.037357135269658726,-6.152779446826122e-05,64.59533333333333,0.062114589447427475,0.18000000000000682,-2.0138894351913453e-05
S098,10845.0,10874.984375,W,-1.4799218750000003,94.0640898600088,-186.91,191.19,378.1,8.04,18.838602459856634,984.375,987.9231770833334,0.9825247160801266,0.7681816722606848,0.4860510875640772,64.23940814259882,0.42143582580805466,66.37770710110436,0.13854166666666667,87,4.676101916666667,0.006164859826175175,7.609027237691805e-06,35.452666666666666,0.029544693074881636,-4.694445717894497e-05,61.66733333333333,1.2027549856706294,3.75,-0.002018472769768004
S098,10875.0,10904.984375,W,1.1388177083333337,105.07117419678801,-205.68,167.44,373.12,12.6,14.821666329702454,984.375,976.3509114583334,0.2866760536253808,0.40760457928678323,0.162326296048696,64.34258387931786,0.16653247814564243,64.50581369148055,0.0,0,4.689210158333333,0.005965526882284903,5.37731157153627e-06,35.37233333333334,0.02231342396157103,-3.329862014393804e-05,60.589999999999996,0.07974960814950703,0.3200000000000003,5.0763902659480644e-05
S098,10905.0,10934.984375,N1,0.5590416666666667,117.58451911691691,-493.17,367.29,860.46,16.725,17.240193059459358,984.375,982.6822916666666,7.013934233901827,3.1894382383174733,3.0222546943465898,64.24603529231963,3.046184643892513,90.74139077620532,0.036458333333333336,14,4.703941066666666,0.011774123494435674,1.9714479740256003e-05,35.39833333333333,0.057101274552811616,9.559030370830716e-05,65.21466666666666,3.4689246492569175,8.100000000000009,0.005895418265901222
S098,10935.0,10964.984375,W,1.0006093749999996,113.6724395333909,-236.9,377.3,614.2,12.42,16.874101324445192,984.375,982.4300130208334,7.049483995965591,5.556676102271532,3.9335049176910912,64.35516579112252,2.425371654778158,89.73850901368932,0.042708333333333334,17,4.726122716666667,0.007147240851292815,-7.611456057795451e-07,35.52266666666666,0.018427033281446344,2.3541673052753034e-05,68.83933333333331,0.05476819839611103,0.20000000000000284,-1.5972226554964265e-05
S098,10965.0,10994.984375,N1,-1.5520729166666674,109.20545651753403,-416.19,249.7,665.89,11.594999999999999,22.33589490747306,984.375,992.7571614583334,1.1035847523210691,0.4199402652626787,0.28558389261690204,64.3414745748969,0.2880674595115143,65.49809157525127,0.08229166666666667,57,4.720166383333333,0.00500861687525167,3.439164127377415e-06,35.593666666666664,0.031249888888691683,5.190973630364015e-05,64.91133333333333,3.18678284307056,7.219999999999999,-0.005388682017329104
S098,10995.0,11024.984375,N1,0.2333750000000003,101.86512429262059,-215.24,180.16,395.4,11.9,24.404554083733473,1000.0,989.2008463541666,0.7630092789227548,0.3736070773739289,0.27060086176671516,64.31482867375182,0.27329044248062356,65.30696746902278,0.078125,61,4.730307100000001,0.00661314099401087,8.37663595286356e-06,35.65433333333332,0.0102252411001178,2.8819452262219415e-06,61.414666666666676,0.05920210206478263,0.1700000000000017,-9.319446972506368e-05
S098,11025.0,11054.984375,W,-0.8975156249999998,108.25829497195183,-216.8,167.46,384.26,12.555,36.06158134484794,984.375,985.0830078125,0.4699106002445808,0.934020742951616,0.2362907813126304,64.41427214845879,0.2468169043754034,66.3023378170031,0.052083333333333336,45,4.75021515,0.008240913597866446,1.2100777154073678e-05,35.605333333333334,0.028134597128012213,-4.340278955153727e-05,60.63099999999999,0.37727399415632473,1.0499999999999972,-0.0005523265387170513
S098,11055.0,11084.984375,N1,1.0520104166666664,111.88852866627596,-283.19,180.99,464.18,16.45,19.53775933195876,984.375,992.1875,1.4408923588979696,0.5533985905294664,0.17377735096477137,64.55109212321875,0.18887129584240245,65.62773803811922,0.04895833333333333,33,4.771297416666667,0.006273670700612345,7.457155234688281e-06,35.523333333333326,0.023142073276945795,-3.451389825138219e-05,60.50033333333334,0.07171626190915263,0.21000000000000085,-9.468752568563579e-05
S098,11085.0,11114.984375,N1,-0.2875989583333334,118.76937366223842,-252.28,213.67,465.95,15.945,41.90197621360925,984.375,990.673828125,0.18160884018497922,0.5466031070138756,0.21404665898402203,64.6637642588097,0.21087171713126734,65.52098900352466,0.026041666666666668,16,4.784811316666666,0.007521456777095922,1.152653524482836e-05,35.475666666666676,0.018015425489162146,-1.9548616414012535e-05,60.59466666666667,0.06545906269485521,0.23000000000000398,3.548612073733795e-05
S098,11115.0,11144.984375,N1,-1.533817708333333,115.70229622675538,-222.14,185.59,407.73,13.28,24.621642215680207,968.75,958.2112630208334,0.8338514014632477,1.1351275434639738,0.5100381249366451,64.60064189171136,0.4254709299126742,65.99242380758567,0.10520833333333333,74,4.809501591666666,0.00866366034411924,1.233215677413109e-05,35.452,0.010770329614268317,-3.263889774275228e-06,60.81666666666667,0.258886504519301,0.8699999999999974,0.00046159734743851584
S098,11145.0,11174.984375,N1,1.7366197916666664,127.12719940239818,-430.06,185.64,615.7,22.104999999999997,20.40368504328755,984.375,986.9954427083334,0.39519685671264587,0.7401545622649817,0.15723301886761007,64.62223197145771,0.2077900232872462,65.7419196555744,0.025,21,4.8349284,0.007770047336192107,1.147549660251096e-05,35.437999999999995,0.01423610433604291,-2.0833338984730132e-06,61.47566666666667,0.06243307527976483,0.22999999999999687,-4.895834661413623e-06
S098,11175.0,11204.984375,N1,-1.414427083333333,121.92247664578751,-232.57,196.31,428.88,13.205,19.562920218854114,984.375,981.1604817708334,0.9252668299454068,0.9046891491541291,0.460807714779169,64.77130069173025,0.3784045914068416,67.30527468185537,0.09895833333333333,66,4.855914491666667,0.007689780119305356,1.0671021774908289e-05,35.44199999999999,0.01222020185321694,9.305558079850478e-06,61.25466666666667,0.1563272919941435,0.509999999999998,-0.00027486118567197936
S098,11205.0,11234.984375,N1,1.3458125,116.61476179366835,-333.84,355.54,689.38,14.64,11.324192694641738,984.375,984.6272786458334,6.394625293079251,8.528062336909963,2.924838997230826,64.74378886738836,2.1970934804201323,88.3742043811428,0.034375,11,4.866855908333334,0.0051942706770631035,3.1192130857244237e-07,35.45133333333333,0.01707499796648764,2.2638895030081546e-05,60.976000000000006,0.29090204536922715,1.0200000000000031,0.0003738889903127681
S098,11235.0,11264.984375,N1,-1.4890833333333326,128.5075628857976,-392.22,306.25,698.47,12.215,22.41576586713234,1000.0,1001.4892578125,2.6425964452072934,1.5536918398876056,0.2776075867519154,64.64527613499405,0.30403963069666134,66.10597552415364,0.04479166666666667,29,4.875534233333334,0.00815958722274328,1.065489828963168e-05,35.550666666666665,0.021437246921084775,1.7222226894049673e-05,61.818999999999996,0.05694149043828553,0.20000000000000284,-9.496530353876546e-05
S098,11265.0,11294.984375,N2,1.3203281249999999,116.21921014494657,-319.9,233.07,552.97,18.015,35.85608285101743,984.375,980.322265625,1.2544499783825136,1.1583366119557916,0.42244817030876375,64.60834891794244,0.39502121977726257,66.35510530471637,0.17916666666666667,91,4.891887716666668,0.005629327884960083,4.513568498689335e-06,35.554,0.012000000000000455,-5.555557062596371e-06,61.43966666666667,0.29008600257318357,1.1000000000000014,-0.000421007058649919
S098,11295.0,11324.984375,N1,-0.6791822916666667,121.75711103381234,-486.37,506.75,993.12,7.47,62.69240486477433,984.375,964.3310546875,15.50073418960104,22.89567134838058,10.178676681395034,64.91748619892546,7.380448988983625,116.77328461596,0.07083333333333333,34,4.906309108333333,0.012137063280022224,1.1615865781213603e-05,35.570000000000014,0.027325202042560424,3.2083342036498595e-05,61.23166666666667,0.9036005139932618,2.8399999999999963,0.0015202434679479873
S098,11325.0,11354.984375,N2,-0.36293229166666674,93.98709473964807,-203.6,233.95,437.54999999999995,6.91,35.78475612914572,968.75,960.5224609375,0.7055828953583145,0.44635750922513523,0.16451739185333028,62.940949528945374,0.229123099557996,64.04685784642366,0.2625,75,4.913834766666667,0.0046786259872839304,3.0998550075560853e-06,35.73566666666667,0.04112447230326849,7.017363014692865e-05,64.70766666666667,0.41621855903946436,1.730000000000004,0.0006205904461237103
S098,11355.0,11384.984375,N1,0.04335416666666703,102.22330112460693,-194.44,173.82,368.26,9.24,21.612093678681386,968.75,966.4469401041666,0.5702922846493327,0.4629314804110384,0.22688016523045818,62.90531137139189,0.23920270671885918,65.49045732013177,0.057291666666666664,36,4.924338358333333,0.005418162238858978,5.728445781370979e-06,35.843,0.022383029285598228,3.3506953533785995e-05,64.83966666666666,0.7519994828603421,2.460000000000001,-0.0011969100469048522
S098,11385.0,11414.984375,N2,0.20269270833333314,106.52198742752473,-218.08,179.57,397.65,10.684999999999999,18.67000150126482,968.75,967.8955078125,1.069819559032685,1.094713861015745,0.8062735515509334,62.989351180279364,0.48624022263221855,67.05967491719595,0.2,74,4.9394214666666665,0.006338095589282924,7.905037300628442e-06,35.910666666666664,0.02393509742802256,3.812501034207197e-05,62.04666666666667,0.25956801720465394,1.0900000000000034,-0.00026729173917419046
S098,11415.0,11444.984375,N2,-0.11699999999999999,103.50333024966315,-243.78,235.2,478.98,8.435,42.606374719135125,968.75,968.26171875,1.4902402397674752,0.48646614019431567,0.501231123224495,63.30237246059673,0.3862954739832217,66.5432190384565,0.11354166666666667,66,4.951099466666666,0.006370948853890532,6.730703214708976e-06,35.936666666666675,0.013984117975603078,1.1250003051759558e-05,61.833333333333336,0.08802777339504123,0.30999999999999517,-1.5625004238554234e-05
S098,11445.0,11474.984375,N2,0.8116249999999996,113.48613618092759,-230.5,193.14,423.64,8.61,22.264476843188667,953.125,957.7962239583334,0.8658443364315294,0.5239065580780816,0.3919090008287071,63.14824964849595,0.370280971557614,65.76473218982953,0.140625,88,4.9593295500000005,0.0050372610478480444,-1.6531258824668915e-06,35.970000000000006,0.014605934866804117,2.083333898473763e-05,61.75233333333334,0.06741331882911215,0.25,0.00010656252890693583
S098,11475.0,11504.984375,N1,0.16089583333333338,107.82601823090202,-215.31,192.28,407.59000000000003,10.06,42.94803004219411,968.75,974.609375,3.5360193947039122,0.5201495511442411,1.3031374899481378,63.07383216853273,0.4530311715892835,65.60487786742691,0.22708333333333333,97,4.9544406583333345,0.005070071977621631,-1.4547454033055187e-06,36.03033333333333,0.019058389811896163,2.2534728335157703e-05,61.800666666666665,0.08865413445268962,0.259999999999998,-0.00015395837509721505
S098,11505.0,11534.984375,N2,-1.3858072916666668,88.7152686376615,-225.51,178.35,403.86,5.915,28.766834287718662,968.75,964.9088541666666,0.9785675250291452,0.39920575443623063,0.5587752837307081,62.99428832607896,0.41564803720631366,67.26068688320095,0.2375,108,4.953127666666668,0.005275357048474455,3.6478009027238033e-06,36.07466666666667,0.019102065042527424,2.465278446527616e-05,61.657000000000004,0.11000454536063525,0.3500000000000014,-0.00010302086127953102
S098,11535.0,11564.984375,N2,1.2945989583333335,104.70468250854002,-293.02,297.32,590.3399999999999,11.805,44.393182620189734,984.375,985.5224609375,0.8024458055428624,0.43967712269598724,0.6224731907993217,63.05414113569588,0.5354848019114092,66.87301398920195,0.19270833333333334,129,4.951473074999999,0.004725468641948805,9.181827577535339e-07,36.10200000000001,0.012220201853214305,8.194446667329032e-06,61.43033333333334,0.07743742993898745,0.23000000000000398,-0.00010697919568662995
S098,11565.0,11594.984375,N2,0.3564843749999997,94.2862510588587,-217.4,194.96,412.36,6.800000000000001,28.19754463422929,984.375,983.8623046875,0.7280460138369613,0.6609652033201142,0.5723813787225553,63.05372497594858,0.3717301764790109,64.64518543557594,0.159375,102,4.953928291666667,0.004190712535667107,1.827219896706817e-06,36.12333333333334,0.01192569587999955,6.388890621986992e-06,61.15566666666667,0.15951349646834181,0.5500000000000043,-0.00025829868117911335
S098,11595.0,11624.984375,N2,-0.23124479166666673,97.67761284877876,-197.75,175.15,372.9,8.09,22.858795151708247,1015.625,1006.4453125,1.876758434701233,4.877321384621777,3.296987886429656,62.60323120858347,0.7209835259141392,70.04998215560087,0.109375,51,4.912073433333334,0.005934053751769379,-5.042642426932009e-06,36.118,0.009797958971134243,2.5000006781689775e-06,61.17399999999999,0.371659342229772,0.9500000000000028,0.0006130557218575638
S098,11625.0,11654.984375,N2,0.34335937500000013,112.07060574242925,-212.4,189.35,401.75,8.2,35.94330726916455,1000.0,996.7529296875,4.522636809052571,6.087789463800103,3.108454637657594,62.51479696833034,2.1506185176444723,80.049984384758,0.022916666666666665,5,4.910685775,0.006244194565704557,5.4801197591470285e-06,36.10133333333335,0.01231079020841163,-2.0138894351919968e-06,61.092999999999996,0.24632160549438903,0.740000000000002,-0.00042871539407427146
S098,11655.0,11684.984375,N1,-0.2007187499999997,97.46320463387315,-254.87,333.28,588.15,4.904999999999999,20.928912259924534,1015.625,1013.7288411458334,2.645057095778947,0.7651224257521727,0.76958725296782,63.02010859542979,0.7550359507353197,72.91776189653656,0.027083333333333334,13,4.912991466666667,0.005296762289256369,1.92866024540477e-06,36.10266666666668,0.01412641340027726,7.430557571223251e-06,60.47233333333334,0.4455385006433848,1.0599999999999952,-0.0007577432611065702
S098,11685.0,11714.984375,W,-1.667234375,132.30217705836353,-570.84,379.46,950.3,12.600000000000001,11.932192489675863,1000.0,1003.7109375,12.376638499833287,34.76013016813308,19.17778094308728,63.77191797101331,5.854287884250541,104.7902667235846,0.09375,40,4.925580999999999,0.06693508460142557,3.230405563803596e-05,36.10066666666668,0.013399834161493459,-1.4444448362750514e-05,60.12,0.28662402783669977,1.0799999999999983,0.00042000011393232133
S098,11715.0,11744.984375,W,1.5396770833333335,98.53272671427445,-485.56,274.58,760.14,11.375,56.18851621654376,1000.0,955.9814453125,16.482629219036088,12.945317518690773,15.459141797142772,64.44220590323454,7.383259103660771,158.26875876179733,0.06458333333333334,39,4.889058899999999,0.026681935264769165,-3.9763285526064826e-05,36.032000000000004,0.02773685875028529,-4.3750011867948416e-05,64.50733333333332,1.934605788153121,6.150000000000006,0.0034788203881348716
S098,11745.0,11774.984375,W,-0.17185416666666764,120.71865979502878,-567.64,411.81,979.45,5.4399999999999995,29.483589002407488,890.625,904.7932942708334,10.028376405646796,25.635737587724424,44.60818135443318,63.829815026056636,5.546820146660119,109.77249200050075,0.053125,21,4.821755908333333,0.06719513902904928,-8.445924361416115e-05,35.94733333333333,0.0191369334592103,-1.569444870183594e-05,68.81033333333333,0.8786485202982028,2.6499999999999915,0.0015694795924152526
S098,11775.0,11804.984375,W,-0.0019218750000002652,60.845701521554886,-117.61,100.48,218.09,5.42,38.40922031240568,921.875,914.111328125,0.232399078305449,0.36010794822525094,0.33653249956562725,63.0554289761799,0.32812847575400955,63.92182725798755,0.13020833333333334,110,4.6156946,0.04995081075191206,-8.74158648589043e-05,35.940666666666665,0.015260697523013816,-1.0555558418934621e-05,68.75566666666667,1.015039189172298,2.839999999999989,-0.0017944796534504267
S098,11805.0,11834.984375,W,0.11890104166666685,80.02437669424678,-177.45,168.56,346.01,4.1,19.56741545065984,937.5,938.5009765625,0.49434299833212964,0.35398126274564307,0.448589610767892,63.04568956100411,0.4310677953225988,63.92182725798755,0.2791666666666667,176,4.550142116666667,0.09766529477089798,1.781042149805268e-05,35.911333333333324,0.014544949486180797,-1.6805560114355585e-05,66.80266666666667,0.4949002144091501,1.6300000000000097,-0.0007768057662776064
S098,11835.0,11864.984375,W,-0.15429166666666755,123.66068624684213,-684.78,531.87,1216.65,1.63,38.89088549862395,937.5,947.1028645833334,11.290719853831655,8.779206958853909,9.882324990720667,63.2287503976836,4.495960944458245,96.8039255402383,0.058333333333333334,28,4.960868183333333,0.30493912845979015,-0.0002879391536293277,35.88633333333333,0.02121058435990932,-1.6562504492866063e-05,64.87933333333334,0.37454802391979236,1.1200000000000045,0.000278541742225948
S098,11865.0,11894.984375,W,-0.27442187500000004,32.093292657876425,-63.7,62.8,126.5,-1.28,33.85458823699608,968.75,964.1357421875,0.2689659177861678,0.0,0.2787601984930576,62.848238797356125,0.25191943917331766,63.788713735268246,0.007291666666666667,7,4.8515486166666655,0.006932533767417938,-8.345063027632291e-06,35.76199999999999,0.04982636517614646,-8.618057893353461e-05,64.79933333333334,0.2910776910417931,1.0,-0.00051368069490036
S098,11895.0,11924.984375,W,0.15276562500000004,33.93127928112057,-61.5,79.38,140.88,-2.8200000000000003,28.907064477941592,953.125,956.4208984375,0.537232451176604,0.4667968568398415,0.46602331956137133,62.7755881875751,0.326768578630575,64.69930447848725,0.22083333333333333,130,4.8478018,0.006107360096091707,8.402688911319666e-07,35.65133333333333,0.02045048220023639,-3.111111955054044e-05,63.25733333333333,0.7576319833680609,2.1799999999999997,-0.0013568059236127175
S098,11925.0,11954.984375,N1,0.09295312499999996,36.24586932180874,-61.07,76.2,137.27,-1.4249999999999998,37.4608577320362,953.125,948.73046875,1.3991006535946187,0.5824994039100432,1.1339339516026594,62.740930319489344,0.32856401453905565,64.45153217728807,0.0875,59,4.841834833333333,0.006836265379495475,-7.130092645966922e-06,35.63966666666666,0.01048279012900884,1.7708338137023966e-06,62.46333333333334,0.18902086892427752,0.6000000000000014,0.00033972231437779803
S098,11955.0,11984.984375,N1,-0.08015104166666658,36.50525818900527,-69.38,70.38,139.76,-1.915,48.85708708666104,953.125,954.8258463541666,0.2559173823663063,0.3234941073651883,0.49727992759500045,62.51940098676725,0.38799732276559695,63.4428877022476,0.05625,47,4.8326226666666665,0.006181120509709835,-1.3513250193481404e-06,35.66066666666666,0.012364824660661071,1.5208337458858958e-05,62.73833333333335,0.030776975521032448,0.12999999999999545,3.77430657940172e-05
S098,11985.0,12014.984375,N1,-0.6533385416666668,53.80091208518578,-128.88,113.34,242.22,0.395,54.05329798085168,968.75,948.1282552083334,6.299442973059867,2.226332895081556,8.787809617490804,62.297818020318296,0.7863385025795624,70.63285354564121,0.058333333333333334,37,4.845901783333333,0.00641208214126955,-1.487101097847034e-07,35.72266666666666,0.021898756940875348,3.1875008646648585e-05,62.80433333333334,0.0842093950947413,0.21999999999999886,-0.00012982642410656049
S098,12015.0,12044.984375,N1,0.2544791666666667,56.452915103536206,-193.08,130.17,323.25,-0.28500000000000003,25.2499902974898,937.5,934.9283854166666,0.7507049638228945,0.42687494916218993,1.0882296203454591,62.20660950687737,0.4260089891947291,64.389440128021,0.203125,99,4.847204058333333,0.006362884523149161,2.1491023624951837e-06,35.76200000000001,0.016812693617224917,1.263889231740756e-05,63.231333333333325,0.18684634209840903,0.6200000000000045,0.00031805564183367104
S098,12045.0,12074.984375,N2,-0.1319791666666669,52.288681162844085,-87.8,96.17,183.97,-1.4,55.304677138267934,921.875,930.2083333333334,1.2762346792801167,0.47889031886226313,1.552786124443379,62.35285985669425,0.3900226806826734,65.70388116390082,0.1,64,4.850438466666666,0.006026158772293435,5.609263674388024e-07,35.79333333333334,0.017950549357114386,1.7986115990156936e-05,63.69666666666667,0.213702805056201,0.5999999999999943,0.0003782639914995626
S098,12075.0,12104.984375,N2,0.02145312499999997,53.990422293207196,-98.83,107.61,206.44,-3.04,60.254592108468195,937.5,939.74609375,0.28772447456531897,0.33071891388307384,0.4155075021885887,62.28190854424703,0.2800918052740683,63.00793600809346,0.16458333333333333,112,4.855231300000001,0.006921806843351428,3.5301129367710785e-06,35.82733333333333,0.013646326326971827,1.4652781752598004e-05,63.944333333333326,0.059424087895584794,0.17999999999999972,8.96180798660148e-05
S098,12105.0,12134.984375,N2,-0.24200000000000005,54.85949720706981,-100.82,109.3,210.12,-3.35,39.395733543201025,937.5,939.7379557291666,0.4822354178862113,0.4155075021885886,0.6854103343172532,62.26721902704389,0.2181772325632774,63.56886030125127,0.096875,44,4.864518283333333,0.005469521633841075,2.0405673938171253e-06,35.84333333333334,0.013984117975601045,1.1319447515040673e-05,64.026,0.09379410073844463,0.2600000000000051,0.00011993058808880928
S098,12135.0,12164.984375,N2,0.800375,50.61738671215365,-113.0,107.12,220.12,-2.0549999999999997,58.731822906107055,953.125,952.8483072916666,0.2839740763549847,0.2293536169264008,0.556491832574587,62.349824760257114,0.30512680188678337,63.623894882347464,0.03125,25,4.8724812,0.008264351456305198,6.131475187574602e-06,35.869,0.014456832294800444,1.3437503645155602e-05,63.849000000000004,0.05729165151514942,0.20999999999999375,-5.5034737151349004e-05
S098,12165.0,12194.984375,N2,-0.2370781249999996,70.152278000805,-333.8,330.29,664.09,-1.255,52.38229777726206,953.125,957.1126302083334,5.013042775926003,1.4488677182305345,4.7355481907237165,62.875559013614065,1.1697202196259149,70.61161377563892,0.03229166666666667,19,4.8796653,0.010721771305463793,1.6390396807290775e-05,35.89099999999999,0.017194960502037837,5.173612514543556e-06,64.00633333333333,0.24436971079811756,0.6299999999999955,0.0003767014910757094
S098,12195.0,12224.984375,N2,0.03838020833333363,53.24635973209835,-118.48,146.14,264.62,-1.595,48.51841611233927,937.5,949.1048177083334,2.052005074649887,0.43699251320500015,1.474186157304731,62.637799401852675,0.40161477387950134,65.81033353509159,0.25729166666666664,130,4.905583200000001,0.007841762997566264,8.264582537050276e-06,35.90466666666666,0.015434449203719707,-1.4027781583056401e-05,63.89433333333333,0.16329285212634403,0.45000000000000284,-0.00023225700744819225
S098,12225.0,12254.984375,N2,0.054411458333333114,51.6967509070069,-114.41,113.53,227.94,-2.16,80.60682933133461,937.5,954.0608723958334,0.1988574133225446,0.28472201050127627,0.25642566810654677,62.5931132594101,0.20434242827260088,62.65780079128216,0.0,0,4.919694949999999,0.006914661205065183,6.874410284942002e-06,35.908666666666655,0.010241527663824253,1.8055560453443354e-06,63.24400000000001,0.5120911377219225,1.2299999999999969,-0.000873819681483203
S098,12255.0,12284.984375,N1,-0.0038854166666668338,74.26127121877552,-599.75,346.05,945.8,-2.34,25.059417475852428,968.75,963.4440104166666,2.6296170952646953,0.9535000400570988,2.558197395614841,62.61459516153151,1.1537862702924875,74.57211275000863,0.036458333333333336,21,4.947736841666667,0.013328419549966535,2.682064529639628e-07,35.93066666666666,0.022793761329706504,3.5902787517035026e-05,63.389,0.43236828437494484,1.2099999999999937,0.0007587154835925245
S098,12285.0,12314.984375,N2,-0.13180208333333368,69.53310577959726,-452.89,274.48,727.37,-3.04,62.27773989130767,921.875,948.0305989583334,1.688655725635697,0.6746398216003032,1.5636242483188074,62.62183390251357,0.9006259042108044,77.3950902835574,0.016666666666666666,10,4.9425810750000005,0.007337806358354498,-6.2901542670773084e-06,35.91866666666667,0.01687865186823058,-2.1041672374586574e-05,63.67366666666667,0.14400192899942577,0.45000000000000284,-0.00024871534524613387
S098,12315.0,12344.984375,N2,0.4518489583333333,66.1876593503598,-131.63,124.97,256.6,-2.685,56.193791669099596,953.125,957.0556640625,0.5007633062524538,0.07902948640996109,0.18257418583505536,62.56559599934726,0.35699754405520995,63.72597586541927,0.0020833333333333333,2,4.947480666666667,0.006615663276564867,3.535145924247444e-06,35.902666666666654,0.012092238098143367,3.472223164123339e-07,63.29566666666666,0.4639086356409231,1.3000000000000043,-0.0007139238047753378
S098,12345.0,12374.984375,R,-0.6521458333333338,77.63253538358063,-252.01,263.81,515.8199999999999,0.5700000000000001,22.085321624784534,953.125,952.4983723958334,2.3887101990259416,1.3447714948138545,3.877765590159134,62.45752892294194,0.8736880678308823,69.28924880528002,0.023958333333333335,10,4.952049441666667,0.01493309280300852,2.490109833471632e-06,35.928,0.022120880030717455,2.923611904191869e-05,62.784000000000006,0.25051413799091954,0.6799999999999997,0.00043645845173026645
S098,12375.0,12404.984375,N2,-0.1753177083333334,74.39083262295537,-137.55,144.4,281.95000000000005,-2.225,20.07225310293361,968.75,965.9993489583334,0.5469285688049218,0.11131708339493789,0.5237045856735986,62.357426597183775,0.1890057587360936,64.389440128021,0.041666666666666664,34,4.962563891666667,0.007376444743004411,6.6519013270131875e-06,35.949333333333335,0.01314872194887717,-1.7361115820610985e-06,62.61466666666667,0.22373694871929906,0.6300000000000026,-0.0003717362119510126
S098,12405.0,12434.984375,N2,0.9443854166666665,73.7386926948902,-140.47,174.64,315.11,-1.75,35.34112896931848,953.125,959.6272786458334,0.1462753717308556,0.05581428468591172,0.12401959270615269,62.366792806039406,0.13240124073940956,63.08724118235002,0.020833333333333332,20,4.976451441666667,0.0069690951131834225,8.164100087917751e-06,35.95933333333334,0.01526069752301208,1.55555597752708e-05,62.35299999999999,0.16122758242104107,0.4299999999999997,-0.00026010423722445816
S098,12435.0,12464.984375,N2,-0.8325781249999998,76.93142244320276,-177.94,285.77,463.71,-5.455,26.65940975747927,937.5,945.0276692708334,0.6163278559676388,0.2415206994522186,0.6908370715118002,62.47328732318298,0.2847443912700145,64.48255578061404,0.019791666666666666,15,4.994107083333334,0.007114442423201939,5.254868612974291e-06,35.976000000000006,0.013808210118139028,6.597224011833025e-06,62.67566666666665,0.2768234495526386,0.7800000000000011,0.0004933681893902423
S098,12465.0,12494.984375,N2,-0.365473958333333,83.28490087860283,-187.54,192.27,379.81,-5.484999999999999,22.69615079871212,953.125,954.833984375,1.7020195826494542,1.467258403357167,0.9556029946234645,62.39120621039489,1.0092757858894448,77.72387020729218,0.009375,5,5.00272165,0.006339512303337414,5.490215030982721e-06,35.97066666666667,0.013148721948877166,-6.250001695416028e-07,63.13533333333333,0.2265058252868761,0.5600000000000023,0.00037881954720582315
S098,12495.0,12524.984375,N2,0.5287760416666666,85.78310123935546,-229.6,164.16,393.76,-2.79,36.52523260754012,921.875,930.224609375,0.4869376653438872,0.23632521950693286,0.5081529307616622,62.31611771367758,0.3360527167173581,63.58458932791813,0.04791666666666667,41,5.009425191666666,0.005993573308547299,2.110453480483198e-06,35.96,0.014375905768564335,-1.2708336780689414e-05,63.29533333333334,0.17465648825305277,0.6300000000000026,0.00016590282278179896
S098,12525.0,12554.984375,N2,-0.38980208333333327,87.6829497843081,-162.47,163.03,325.5,-6.045,22.22865048124697,953.125,941.1214192708334,0.07216126567549165,0.38522517765587444,0.17066811115925162,62.42350530510681,0.16691441909355823,64.29618962271404,0.00625,3,5.015135991666667,0.005708886649332869,4.87547332776515e-06,35.961333333333336,0.013349989596332821,-1.7361115820605564e-06,63.81933333333333,0.09398345007972857,0.269999999999996,-0.00012416670034903895
S098,12555.0,12584.984375,N2,0.20231770833333343,91.61442933392267,-174.94,215.49,390.43,-4.925,27.89415234492972,953.125,946.1018880208334,0.9252533436848527,0.4813706107881489,1.3059654627632984,62.308307280906625,0.30250694997705974,64.91532946846992,0.014583333333333334,10,5.021402008333333,0.006037797358441036,2.8127383932124545e-06,35.96933333333334,0.013148721948876965,6.250001695424175e-07,63.724000000000004,0.24259156346968508,0.7099999999999937,-0.0003593056530234501
S098,12585.0,12614.984375,N2,0.800223958333333,79.32439251856535,-169.3,168.45,337.75,-3.61,33.296197828756945,968.75,958.5367838541666,0.30068642534854956,0.3708040718792368,0.07902948640996109,62.08040634098223,0.21942775241806137,62.976185975335156,0.10104166666666667,46,5.031190675000001,0.006455245540337085,4.544142074691259e-06,35.974666666666664,0.015216949614017846,-1.2152781074430604e-05,63.29866666666667,0.18800236405133047,0.5300000000000011,-0.00025611118058571506
S098,12615.0,12644.984375,N2,-0.4501093750000003,78.20914898286168,-166.69,161.65,328.34000000000003,-3.715,83.03914235590206,937.5,909.5296223958334,0.19741988090108856,0.18968346714548773,0.40385377708260806,62.43621721048644,0.272008783480836,62.80127387243033,0.014583333333333334,12,5.036175450000001,0.008276569023303081,-2.7280901497639995e-06,35.958666666666666,0.013349989596332821,3.47222316413197e-07,63.35,0.13940349110884273,0.4799999999999969,0.00021687505883112408
S098,12645.0,12674.984375,N2,-0.14388020833333304,86.05472861242761,-488.16,197.52,685.6800000000001,-0.09999999999999999,38.48593781051858,937.5,935.8805338541666,4.076622754388394,1.4872008919630042,2.604973000166647,62.529964505413226,2.134390377858442,95.37819457297354,0.0125,5,5.007151458333334,0.009292428528014799,-1.2079674500779708e-05,35.94066666666666,0.021123972690340918,-3.125000847710945e-05,63.50300000000001,0.2294653205461196,0.6300000000000026,0.0003853820489860164
S098,12675.0,12704.984375,N2,-0.0076874999999999956,80.99286453953219,-169.33,155.07,324.4,-3.775,31.840903760071434,937.5,937.9801432291666,0.4883528419738017,0.4987440823931871,0.15419129870787854,62.210985899826404,0.308734035914784,63.14269553954757,0.19166666666666668,118,4.987894525,0.006882113587605805,-4.247776976936041e-06,35.89799999999999,0.011075498483889161,-7.222224181375195e-06,63.662666666666674,0.09922813221169763,0.3400000000000034,5.368057011734085e-05
S098,12705.0,12734.984375,N2,-0.4600833333333331,81.27429206790353,-164.56,183.9,348.46000000000004,-3.73,53.48341406359136,937.5,942.9931640625,3.2306690053644034,0.4202127747245039,2.167932322641912,62.23840779342879,0.4334593470305428,65.85590330410783,0.03125,22,4.978138108333334,0.005779570334081692,-4.832184687550059e-06,35.896666666666654,0.012995725793077614,-2.222222825038672e-06,63.56733333333333,0.12790447824668053,0.39000000000000057,-0.00018131949363050484
S098,12735.0,12764.984375,N2,0.9170989583333338,88.26162203376887,-414.63,230.68,645.31,-4.26,48.92182578457298,937.5,943.115234375,4.34684379731592,0.6480464433266596,3.492588879804397,62.68977658546244,0.39821894916184114,64.76109943476871,0.008333333333333333,5,4.966022425,0.007584836338228284,-7.36420360357092e-06,35.89599999999999,0.01280624847486474,5.347223672749029e-06,63.76966666666666,0.08126021303332977,0.29999999999999716,8.77430793573891e-05
S098,12765.0,12794.984375,N2,-0.28378125000000015,87.1722531350409,-163.96,160.12,324.08000000000004,-4.699999999999999,35.567046649718044,937.5,939.501953125,0.0,0.3234941073651883,0.17950549357115012,62.97867781420002,0.17288948837394794,63.03967004989794,0.0,0,4.952348383333333,0.005785661387118036,-3.7042119423317794e-06,35.89133333333333,0.013597385369580283,-1.2500003390836498e-06,63.823,0.1117183959784596,0.30999999999999517,7.628474291578267e-05
S098,12795.0,12824.984375,N3,-0.05720312500000014,92.20783829796542,-204.15,272.81,476.96000000000004,-4.88,21.69483407951873,937.5,930.7291666666666,1.789057875418574,0.9956671540214742,1.2607437592107642,62.947142569896464,1.1871502088872423,82.20705565825844,0.009375,4,4.946402575,0.006459676801335145,-3.2874051886406524e-06,35.89933333333332,0.014360439485691132,1.3055559097102094e-05,63.754000000000005,0.0510946833502926,0.21999999999999886,-7.15277971809343e-05
S098,12825.0,12854.984375,N3,0.5067552083333339,69.65032322058343,-216.41,198.98,415.39,-3.33,76.86814480052644,921.875,898.4456380208334,0.22263416678987577,0.34194443739281516,0.22345146129653204,62.259049071577586,0.1919645007857775,64.69157595854347,0.030208333333333334,20,4.941396200000001,0.006235650256923141,-4.641338064598999e-06,35.896666666666654,0.012995725793077614,-4.722223503207452e-06,64.60633333333334,0.3397301216488703,1.1300000000000097,0.00045260428944343846
S098,12855.0,12884.984375,N3,-0.7771927083333332,66.86463053628974,-166.29,156.65,322.94,-4.225,28.006947561824504,921.875,925.3011067708334,0.3093942895221062,0.3523482730985857,0.2294482171972578,62.2796388234002,0.16994026447987048,64.96922348312314,0.019791666666666666,16,4.940093958333334,0.00648934082861504,8.771002813314428e-07,35.885999999999996,0.010832051206181924,3.194445310992657e-06,64.84633333333333,0.07833617016139904,0.25,0.00013135420229877542
S098,12885.0,12914.984375,N3,0.5763541666666666,64.88858664119009,-126.07,124.45,250.51999999999998,-3.41,50.331500291604,921.875,926.2369791666666,0.0,0.0,0.194978186101819,62.305483198664646,0.15709884654808595,63.079315151640635,0.03958333333333333,32,4.939293358333333,0.005081832561186007,-7.665568485667786e-07,35.90333333333332,0.010749676997729848,1.0694447345496998e-05,64.49166666666666,0.18075920139480803,0.6299999999999955,-6.239585025928873e-05
S098,12915.0,12944.984375,N3,-0.7785312499999997,65.84179597503226,-128.99,129.0,257.99,-6.045,52.86545964158336,937.5,941.6910807291666,0.7117861616599155,0.5578355990393187,0.902239088747483,62.298670410109644,0.5577470745752626,68.86218120274728,0.03958333333333333,28,4.940542241666667,0.006041127534100133,-8.477628167764345e-08,35.90933333333332,0.0131487219488773,-2.986111921145267e-06,64.59066666666668,0.1365511707098203,0.480000000000004,-0.00015791670950431811
S098,12945.0,12974.984375,N3,0.84509375,70.15745441795816,-190.33,195.31,385.64,-0.65,51.308847359056855,937.5,925.0325520833334,1.4148747858811472,0.06441510347391793,1.0643774262711303,62.61842813680126,0.22629113162771697,64.70703207534712,0.009375,5,4.940190025000001,0.005647644866760081,-4.356325183464858e-06,35.928,0.014000000000001546,3.4722231641169183e-07,64.31833333333333,0.17231914835237896,0.5300000000000011,-0.00012024308817358221
S098,12975.0,13004.984375,N3,-0.13331770833333334,71.86820400757252,-179.95,141.66,321.61,-5.265000000000001,36.84397956993045,921.875,928.3365885416666,0.15644432360711874,0.0,0.08507936450096985,62.66902451698669,0.09482135476084719,63.50590523722971,0.008333333333333333,7,4.9362085166666665,0.006396090244546963,6.723448004407146e-07,35.93733333333333,0.013148721948878814,1.1041669661912418e-05,64.15533333333333,0.08834528221070444,0.37000000000000455,0.00012868059046240292
S098,13005.0,13034.984375,N3,-0.9512395833333331,68.80528953840275,-149.71,193.38,343.09000000000003,-4.875,49.8676608354996,921.875,922.8922526041666,2.0848408608166125,0.8940777371123835,2.0165708913207645,62.55671282987452,1.7649282102331778,89.05616205518852,0.007291666666666667,4,4.928725633333333,0.006401897507683845,-3.1228619582415777e-06,35.949333333333335,0.01209223809814457,6.944446328215047e-08,64.23666666666666,0.1826532841813226,0.5300000000000011,-4.416667864764648e-05
S098,13035.0,13064.984375,N3,1.2051354166666668,67.56230837609579,-132.36,131.56,263.92,-1.67,57.232033298437536,921.875,927.1565755208334,0.3497751633986546,0.0,0.24393467007354425,62.32191923502144,0.2646687177049971,63.50590523722971,0.19583333333333333,153,4.924156858333333,0.0067974504120979825,-1.5650318915559863e-06,35.931333333333335,0.01257864150941077,-7.500002034506931e-06,64.29700000000001,0.09384916977079136,0.28000000000000114,-0.00010892364065854186
S098,13065.0,13094.984375,W,-0.761192708333334,103.55964839055493,-437.76,334.42,772.1800000000001,-2.0549999999999997,53.26498698871406,937.5,935.83984375,6.438802457237941,5.511436578581144,3.762524080533867,62.73802517990871,1.3592233781857335,73.62064927722385,0.0625,30,4.9220646583333325,0.009149066664142896,7.561669368942439e-06,35.93666666666666,0.012995725793080042,2.5000006781683604e-06,64.40266666666665,0.08835282803749123,0.269999999999996,-9.291669187193332e-05
S098,13095.0,13124.984375,W,0.8884531250000002,76.10822672183734,-267.44,179.48,446.91999999999996,3.545,43.046021773230144,921.875,927.1728515625,1.0181491070401558,0.09107288747664329,0.6075471160855667,62.87776427335483,0.44755072459957745,63.788713735268246,0.21145833333333333,144,4.925267024999999,0.006417283728939263,2.447432304533469e-06,35.857,0.04488132499529466,-7.503474257669757e-05,63.87233333333332,0.15014844506539363,0.5900000000000034,-0.0002110764461470395
S098,13125.0,13154.984375,W,-0.5278072916666667,109.64252460142133,-498.87,338.19,837.06,-0.8200000000000001,20.29120315085025,968.75,955.7210286458334,2.932173065985173,0.5412017235334302,1.0700705576100527,62.92146545463292,0.40648088282232564,66.49060083951716,0.28125,150,4.927679516666666,0.00537730624009106,-9.54017619904986e-07,35.815333333333335,0.011469767022722266,-4.5833345766418425e-06,63.20533333333334,0.29290195553385384,1.0399999999999991,-0.0004627779033143192
S098,13155.0,13184.984375,W,-0.23834895833333344,104.45837847675415,-278.36,239.29,517.65,-2.335,66.51566361512386,937.5,923.4944661458334,2.156456058994711,2.870974688101973,1.4465461139286995,62.71917663626321,0.48700486227796114,65.64297372910524,0.15520833333333334,110,4.926686808333333,0.006174983806046019,-6.474040384668342e-07,35.794000000000004,0.014966629547095637,-1.8333338306569094e-05,63.06666666666667,0.12453468950011046,0.490000000000002,1.8472227233134373e-05
S098,13185.0,13214.984375,W,1.16703125,96.47904651636726,-240.37,225.46,465.83000000000004,-1.815,98.91311917616241,953.125,903.1819661458334,0.6083181719001076,0.4858947931394202,0.4559597630883185,62.658248049260884,0.3724823001993567,63.57672530100933,0.19895833333333332,127,4.943210908333333,0.006605177703887257,3.827547262246927e-06,35.788000000000004,0.01399999999999972,-1.3402781413514427e-05,63.22966666666666,0.10303667092620725,0.4099999999999966,0.00011774308749541199
S098,13215.0,13244.984375,W,-0.2878229166666669,109.8484766244787,-386.19,271.99,658.1800000000001,0.695,104.41209997941331,875.0,860.25390625,2.0311738767787295,2.227475994383678,1.6886027132703205,62.797734746678564,0.9006538471936767,71.78439941937245,0.03229166666666667,19,4.9611228249999995,0.007408940869722353,5.59539235986118e-06,35.736666666666665,0.033399933466335,-5.201390299856426e-05,63.370666666666665,0.40406215143492735,1.0799999999999983,0.000616041833778709
S098,13245.0,13274.984375,W,-0.7613802083333335,111.40199328904357,-206.15,190.82,396.97,4.455,28.231942578755636,953.125,966.3899739583334,0.19598564555571124,0.25302853099996453,0.16567085319156846,62.74915463154354,0.1703223218006463,63.85138996137829,0.10104166666666667,78,4.968776358333333,0.005395701355084742,-3.649326727790455e-06,35.663666666666664,0.013780017739063741,-1.2187503306071777e-05,63.44966666666667,0.15595904020678672,0.6499999999999986,-8.760419043082468e-05
S098,13275.0,13304.984375,W,0.03950520833333287,113.66826837572758,-254.36,237.6,491.96000000000004,2.865,38.344637406524825,953.125,959.6516927083334,0.35155902776063086,0.467195338563004,0.17633419974582354,62.8072593420596,0.21224735396831448,63.85138996137829,0.08958333333333333,37,4.968883066666666,0.006525328065486208,4.344918713356896e-06,35.652333333333324,0.013585122581541738,-8.020835509123509e-06,62.68999999999999,0.5830437376389528,1.5300000000000011,-0.0010313197242078243
S098,13305.0,13334.984375,W,0.6585624999999998,128.03329700754054,-296.56,251.08,547.64,8.32,43.36357134578135,968.75,964.6077473958334,0.8836323933611886,0.03225804701500421,0.43539174569831046,62.89869727061167,0.295321846941348,65.71149062378664,0.21770833333333334,51,4.973473258333333,0.005864533282788176,1.5684667883210383e-06,35.645666666666656,0.01085766498326606,3.5763898590460163e-06,62.11366666666665,0.0758719681803203,0.259999999999998,8.121529980883927e-05
S098,13335.0,13364.984375,W,0.19693229166666626,127.47369358811022,-367.2,365.61,732.81,6.525,34.10945397561693,953.125,961.669921875,0.43535062298170146,0.5362621000318366,0.23658449277630653,62.841350894288944,0.2887347932772902,66.06057825965497,0.035416666666666666,22,4.978159458333333,0.006878276169574045,-2.0707188776917027e-07,35.629,0.01325393023471377,-1.2048614379506392e-05,62.27633333333333,0.06068955612147963,0.23000000000000398,0.00010510419517800416
S098,13365.0,13394.984375,W,0.4520677083333334,128.41763570210415,-276.75,293.91,570.6600000000001,5.05,39.314370142354775,937.5,947.0865885416666,0.7537054010667711,0.4048198652041287,0.4815599200486085,62.843868809680785,0.40981056391838117,67.3349834781297,0.22604166666666667,105,4.984126441666666,0.005924157368768187,1.578097216282022e-07,35.62433333333334,0.012565384549980982,1.4930559605733736e-06,62.46133333333333,0.1102340943427002,0.3499999999999943,0.00016590282278179758
S098,13395.0,13424.984375,N1,-1.960166666666667,128.63568255798904,-313.38,249.12,562.5,6.195,19.025389118423174,953.125,957.9671223958334,0.49747626967413117,0.48042294553572507,0.19625121637981138,62.745085829580724,0.2189845623504562,63.773035054010094,0.034375,28,4.9937121499999995,0.0073010754922933655,6.1957655695978706e-06,35.610666666666674,0.014126413400277843,-6.736112938398931e-06,63.114999999999995,0.1673867776538327,0.5,0.0002850347995428619
S098,13425.0,13454.984375,N1,0.8437552083333334,124.23333550727435,-280.32,229.89,510.21,11.07,15.589559416255764,921.875,927.1484375,1.5266711585632609,0.7610185973782477,0.6456980705127504,62.66122304610924,0.488707171097355,70.34912934784623,0.103125,58,5.000960324999999,0.005410456028473172,3.995584634218958e-06,35.59466666666667,0.014313940369055119,-1.2430558927559158e-05,63.52466666666666,0.1506371652533179,0.45999999999999375,0.0002646528495694572
S098,13455.0,13484.984375,N2,0.5203593749999993,118.95644649594979,-221.68,230.52,452.20000000000005,8.975000000000001,36.116034017319656,921.875,932.3567708333334,0.4387432731361499,0.2160824455245934,0.1737773509647714,62.73934618353602,0.1751869356576558,63.72597586541927,0.01875,15,5.006319016666667,0.0060182982713600465,4.4757186620330134e-06,35.57600000000001,0.013808210118140811,-4.2361122602307665e-06,63.900666666666666,0.19771921729788627,0.6199999999999974,0.00033645842460352236
S098,13485.0,13514.984375,N2,-2.356786458333333,124.34564337812992,-271.09,228.26,499.34999999999997,0.745,22.496198168143863,921.875,921.1588541666666,0.7810909560334329,0.5705405270929977,0.6861697989969796,62.659619939074624,0.5205645243927104,69.0724257573165,0.042708333333333334,31,5.013993783333333,0.005685814437679347,2.538545827513568e-06,35.55533333333334,0.015434449203720769,-1.5833337628401523e-05,64.54299999999999,0.13145721737508298,0.4200000000000017,0.00023149311835208092
S098,13515.0,13544.984375,N2,2.2599843750000006,135.52081721681853,-573.7,279.06,852.76,10.055,44.77032219411722,890.625,916.3981119791666,0.6821636330252605,0.09126331714087292,0.27518735726268795,62.85635993241122,0.2920748428676671,65.95452979136459,0.005208333333333333,2,5.013438733333333,0.005907531493403664,-2.2816460182416625e-06,35.552,0.014922019523732817,4.2361122602295095e-06,64.74733333333333,0.027560035478123406,0.06999999999999318,3.756945463580773e-05
S098,13545.0,13574.984375,N2,-0.0834947916666664,127.66263355979245,-232.1,253.55,485.65,4.675000000000001,14.86395414536079,921.875,914.6240234375,0.1715147740235031,0.05589199343873463,0.11180339887498948,62.59020182190149,0.11166569291823022,63.85922016435841,0.027083333333333334,14,5.017270833333333,0.005057924047692182,1.8300239339258015e-06,35.55266666666667,0.01339983416149461,-1.805556045343842e-06,64.79899999999999,0.06729784543356458,0.28000000000000114,5.711807104982495e-05
S098,13575.0,13604.984375,N2,-1.0206718749999995,120.64473122741,-222.56,231.76,454.32,5.13,24.233379525845045,921.875,921.2972005208334,0.0,0.0,0.05581428468591172,62.58065431462808,0.04827580164242791,63.4428877022476,0.003125,3,5.014975783333333,0.005785555846507405,-5.281824349453113e-07,35.554,0.012000000000000455,-3.4722231641232096e-06,65.37066666666668,0.12904607273717897,0.45000000000000284,0.00021083339052555415
S098,13605.0,13634.984375,N2,0.06939583333333323,128.87476995351915,-247.12,216.03,463.15,9.995000000000001,23.06941451452821,937.5,934.3180338541666,0.5263365510113804,0.4775959309540743,0.2673148859751153,62.714101633546974,0.23003180317703295,64.6297145282261,0.14375,87,5.013001066666666,0.005324672615496858,-3.613296987114028e-06,35.556666666666665,0.014907119849999656,-1.5277781922135115e-06,65.36366666666667,0.11788365262221791,0.45000000000000284,-0.0001347569809996173
S098,13635.0,13664.984375,N2,-0.5012812499999998,127.090057007751,-251.98,212.79,464.77,6.385,25.08984422301797,953.125,941.8294270833334,0.3960402419753438,0.23632521950693283,0.0,62.65558723823073,0.1776358610310496,63.0,0.04375,39,5.011463958333334,0.006125234283132686,6.824266174118015e-07,35.544333333333334,0.016265163865007082,-1.336805918187202e-05,64.59400000000001,0.21917420772831245,0.789999999999992,-0.00039138899505994894
S098,13665.0,13694.984375,N2,0.7296041666666669,127.67280556844639,-271.07,257.15,528.22,8.89,36.16253337885671,937.5,934.3587239583334,0.499995659703384,0.26672362672915867,0.05589199343873463,62.52942206186049,0.22248957214742787,63.4428877022476,0.028125,27,5.012179141666667,0.004946064279296301,2.2225897956244658e-06,35.54533333333334,0.01117536974282563,-9.513891469696116e-06,64.04833333333333,0.13633496331544104,0.38000000000000966,-0.00021371533575177372
S098,13695.0,13724.984375,N2,0.29360416666666667,123.9790612056191,-225.25,201.77,427.02,9.559999999999999,20.35922520646571,937.5,936.3037109375,0.10197698542100346,0.49539436976738266,0.36692551232807763,62.55704355731692,0.3470850538693965,64.03905058634146,0.15729166666666666,131,5.016801183333333,0.006306861249178515,4.770474818379676e-06,35.53233333333333,0.013828312341793271,-4.9652791246950776e-06,63.952,0.0554015643581774,0.21999999999999886,8.986113548750361e-05
S098,13725.0,13754.984375,N2,0.2309843749999993,129.75233591835865,-462.21,256.99,719.2,8.835,19.483786662353257,937.5,933.5042317708334,0.07902948640996107,0.4007791348493026,0.36168490737411507,62.48149598649419,0.340270906355826,63.85922016435841,0.14895833333333333,125,5.017708516666667,0.005078764746444039,-7.039047048352432e-07,35.50866666666666,0.01726911179598459,-1.0000002712674182e-05,64.04833333333333,0.11908213785264134,0.45000000000000284,8.552085653235354e-05
S098,13755.0,13784.984375,N2,-0.19943229166666696,121.01400836456479,-245.12,229.32,474.44,2.99,28.14225856462408,937.5,933.6832682291666,0.0,0.285583892616902,0.3994570968479872,62.49283591274263,0.35887729986433997,64.31174076325411,0.19479166666666667,143,5.021796991666666,0.00532999642197481,1.3735617875330284e-06,35.49933333333333,0.012092238098144673,-1.0069447175956974e-05,65.115,0.567190444207233,1.4799999999999898,0.0009912155466622003
S098,13785.0,13814.984375,N2,0.7846718750000001,120.0838207014889,-218.25,202.57,420.82,10.715,23.587971611993304,937.5,929.8990885416666,0.032258047015004204,0.2667236267291586,0.403853777082608,62.49707522917006,0.3578935588384552,63.4428877022476,0.20520833333333333,161,5.025170233333333,0.0051219676667164475,-1.212254669122927e-06,35.49333333333334,0.013498971154211295,-7.847224350918376e-06,66.05266666666667,0.08921634130334984,0.30000000000001137,-4.2361122602306005e-06
S098,13815.0,13844.984375,N2,-0.7164166666666667,119.39578195793695,-216.05,192.78,408.83000000000004,6.664999999999999,20.272389774612193,937.5,929.7037760416666,0.03225804701500421,0.2779493827570048,0.41758232721225164,62.51628750436617,0.37255425300164496,63.4428877022476,0.225,166,5.025618591666667,0.005729572393142826,-1.8205432455900449e-06,35.48300000000001,0.010049875621122261,-8.993057995079713e-06,65.277,0.48384673881991247,1.240000000000009,-0.0008400349500962823
S098,13845.0,13874.984375,N3,-1.0261354166666663,118.26137542432228,-257.03,233.17,490.19999999999993,7.43,36.486985891235044,921.875,929.8583984375,0.03225804701500421,0.19249988726547926,0.46005358987356626,62.57224926216821,0.4045025007200795,63.4428877022476,0.303125,218,5.027753491666667,0.005246147035358183,2.175147508449352e-06,35.46866666666668,0.011469767022722982,9.722224859544064e-07,64.633,0.05040833264451633,0.1700000000000017,4.6562512630889864e-05
S098,13875.0,13904.984375,N3,0.43947916666666687,117.51310494490066,-233.2,202.3,435.5,9.91,23.58048375530528,906.25,915.0146484375,0.07198059875565235,0.12801909579781012,0.48101883878273305,62.6160144605416,0.4224725757310342,63.4428877022476,0.3625,230,5.029183875,0.005709782848413906,6.485099415446562e-07,35.44933333333333,0.015040685563571387,-1.076389180878132e-05,64.66533333333334,0.13305971925751484,0.3999999999999915,0.0002131945022771537
S098,13905.0,13934.984375,N3,0.9971302083333335,118.99961948575246,-218.51,192.0,410.51,9.530000000000001,21.8663698156878,921.875,923.291015625,0.11557806855349137,0.17399263633843817,0.48789046862487484,62.64021846654187,0.4292790047352027,63.4428877022476,0.3854166666666667,224,5.033432216666667,0.005755307237937473,1.1601088216437392e-07,35.44799999999999,0.014000000000000328,-1.534722638542531e-05,64.864,0.08296987405076697,0.25,-4.263890045543168e-05
S098,13935.0,13964.984375,N3,-1.0183749999999998,117.92651848213661,-212.34,191.88,404.22,5.54,22.736639876428875,921.875,923.3235677083334,0.1899835519196333,0.24762544169571915,0.496462092586131,62.683465465027794,0.44233165686722004,63.4428877022476,0.425,244,5.036143466666667,0.006169766824245068,2.0751181844396784e-06,35.42933333333333,0.012092238098146593,-4.097223333665824e-06,64.95,0.17832554500127126,0.46999999999999886,-0.00027868063115251595
S098,13965.0,13994.984375,N3,0.8280260416666668,117.32737181222421,-234.52,212.89,447.40999999999997,7.75,19.131592156716277,921.875,913.623046875,0.23040385738958447,0.25654623798103576,0.49859176687947826,62.69625278399344,0.450337109576592,63.4428877022476,0.4375,245,5.039623266666666,0.0049209092718950406,1.446937458479071e-06,35.42666666666667,0.011642832797716395,3.1250008477105556e-06,65.11166666666666,0.17739002853098026,0.480000000000004,0.00030989591739797977
S098,13995.0,14024.984375,N3,0.1214114583333334,120.98686954125726,-218.3,196.5,414.8,8.115,23.40999543538448,921.875,918.0989583333334,0.41480835601783894,0.20453835214941965,0.48789046862487484,62.74930175126613,0.46449405652572623,63.4428877022476,0.022916666666666665,22,5.043220725,0.005941742731110825,-3.3077287618623406e-07,35.423333333333325,0.01398411797560364,-3.6111120906885472e-06,65.55466666666668,0.15116730981120227,0.45000000000000284,0.0002685417395132783
S098,14025.0,14054.984375,N3,-0.21872916666666722,121.52513430892249,-216.81,194.59,411.4,7.57,21.90574876638422,906.25,912.5406901041666,0.4249068014642217,0.22219509383022434,0.4833052703778432,62.76158483767889,0.46112398495648715,63.4428877022476,0.027083333333333334,26,5.043274108333334,0.0054275029000388775,1.8444725055535466e-06,35.41599999999998,0.012806248474866737,1.4583337289308674e-06,65.58166666666666,0.04546671554249764,0.18000000000000682,-3.697917669791085e-05
S098,14055.0,14084.984375,N3,-0.48088541666666684,120.09325348820684,-214.69,208.36,423.05,8.440000000000001,22.950944407268295,921.875,922.5423177083334,0.4330127018922193,0.22219509383022434,0.4739194123213354,62.78320325296392,0.4627968924769611,63.4428877022476,0.034375,32,5.049614925,0.0059612761918939475,2.9158195843694427e-06,35.41666666666665,0.01074967699773308,3.333334237558636e-06,65.48366666666668,0.09289719526922678,0.27000000000001023,-0.00016621532286656965
S098,14085.0,14114.984375,N3,-0.449729166666667,122.47785673307094,-523.68,439.94,963.6199999999999,6.725,22.449323074643885,921.875,921.1100260416666,4.1652997757931205,1.4027487276970012,3.0606880623367276,62.86760580021136,0.6427280004508662,68.36665854054884,0.011458333333333333,6,5.063609158333334,0.010504373485201168,1.068342629216206e-05,35.41866666666667,0.009910712498213887,-6.944446328247159e-08,65.56466666666667,0.1958695711152913,0.5,0.00031479175205939217
S098,14115.0,14144.984375,N3,1.2513281250000003,110.4243672306442,-217.44,192.43,409.87,6.5,35.75479994816396,921.875,919.1080729166666,0.3,0.46351240544347894,0.12401959270615269,62.85806003841761,0.20594466898822672,63.387695966961914,0.020833333333333332,18,5.058250525,0.0069900275475881955,-4.786802296767127e-06,35.42733333333334,0.012364824660662155,7.638890961071209e-06,65.61999999999999,0.16870091878824883,0.46999999999999886,0.00023159728504700247
S098,14145.0,14174.984375,N2,0.02508333333333373,116.9654431983961,-267.37,225.43,492.8,5.93,40.34160329037176,906.25,907.8938802083334,1.4950787325979416,2.3965895545661455,0.629121825112858,62.85151173806579,0.38184495951972974,66.49060083951716,0.06145833333333333,23,5.047106375,0.006231120819540233,-2.0505046794988218e-06,35.41333333333332,0.02070963275601304,-2.3263895199624628e-05,65.42066666666668,0.1709372854457317,0.539999999999992,-0.000261527848721749
S098,14175.0,14204.984375,N2,-0.10742187499999964,108.02815360025531,-427.47,184.28,611.75,10.445,24.062176271493055,937.5,941.0237630208334,0.25385696637082855,0.29720193985833193,0.23090251670829018,62.900249544603255,0.23108200558855158,63.51377803280167,0.125,93,5.041672875,0.006935098217956841,-5.136979909119904e-06,35.365,0.018027756377318332,-1.9409727487446924e-05,65.11733333333333,0.34063600644806846,0.8999999999999915,-0.0005752084893686219
S098,14205.0,14234.984375,N2,-0.9444374999999996,105.12766560233369,-251.57,186.54,438.11,7.720000000000001,27.14043368907346,921.875,921.7529296875,0.565722827635878,0.4851796631718559,0.48290997083364884,62.85545377677895,0.3419510421185685,63.953107821277925,0.146875,93,5.0425162,0.0051927301996797645,1.7423737365379503e-06,35.34366666666668,0.01378001773906183,-8.506946752101647e-06,64.81266666666667,0.1252446494754262,0.35999999999999943,-0.00016673615634118879
S098,14235.0,14264.984375,N2,1.0820416666666661,109.97471453038617,-201.06,206.5,407.56,7.01,24.985466812428268,921.875,925.7405598958334,0.47981726664950275,0.2221950938302244,0.4999826385874703,62.895213776614455,0.44884183624964447,64.41273166075166,0.13958333333333334,105,5.047789533333333,0.006083745451245919,-2.7621053499634437e-06,35.32533333333333,0.011469767022723037,-2.430556214886086e-06,64.72566666666667,0.17400542775697925,0.480000000000004,0.00027940979801698376
S098,14265.0,14294.984375,N3,-0.8539947916666661,114.67573280200592,-209.67,191.78,401.45,6.175000000000001,23.112780060122105,921.875,920.6461588541666,0.2582808246366733,0.17116012950028855,0.43480194844894615,62.948653191636005,0.4023096143540396,63.51377803280167,0.04895833333333333,44,5.048333958333332,0.006139821686330176,4.141151079956312e-06,35.32066666666666,0.012092238098143655,2.708334068015406e-06,64.82199999999999,0.04269270039089513,0.13000000000000966,-1.750000474718161e-05
S098,14295.0,14324.984375,N3,0.948984375,115.53361026062468,-212.55,196.68,409.23,11.280000000000001,33.45373878428675,921.875,925.0569661458334,0.09636964965693294,0.11987768650679835,0.41197356981027583,62.963051856850825,0.3749122628670402,63.51377803280167,0.007291666666666667,7,5.049732325,0.006083230259166734,-7.66643220118032e-07,35.32599999999999,0.010198039027184842,2.63888960473397e-06,64.98766666666666,0.08232793504570024,0.28000000000000114,0.00012197919975564252
S098,14325.0,14354.984375,N3,-0.28530729166666663,121.33067469046347,-362.93,273.4,636.3299999999999,7.800000000000001,31.856915323954723,890.625,904.3701171875,1.473793056104629,0.3943557950069398,0.7993805924571988,62.822572695969534,0.3878163563970007,65.55150646628954,0.21354166666666666,111,5.051514958333333,0.007095436499840134,7.1105937257469706e-06,35.332333333333324,0.009893881386437438,4.7569457348488475e-06,65.10666666666665,0.15284705500015944,0.46999999999999886,0.0002466667335792986
S098,14355.0,14384.984375,N3,-0.9828333333333336,100.26986647082158,-411.96,266.95,678.91,0.9750000000000001,40.68993408167577,906.25,918.5628255208334,4.9097581230024865,2.42527114034012,3.3641389025359154,62.62169625656667,1.5438829673820815,96.08850087289322,0.00625,3,5.053308308333333,0.0058349303691872505,-2.799178276686733e-07,35.30933333333334,0.020483055327650372,-2.965278582161209e-05,65.43533333333335,0.03518838192105749,0.13000000000000966,1.347222587679559e-05
S098,14385.0,14414.984375,N2,0.921671875,72.66785003575802,-133.77,147.81,281.58000000000004,2.815,28.12940657203565,921.875,924.0804036458334,0.1676759803162039,0.20770478097931847,0.159884805537195,62.42983521468987,0.14451089926011831,63.00793600809346,0.015625,11,5.0600758500000005,0.0070126301409789765,7.006445042980959e-06,35.21699999999999,0.027586228448267483,-4.1770844664400017e-05,64.93266666666666,0.22321788060597036,0.6399999999999864,-0.00039465288483421984
S098,14415.0,14444.984375,N2,-0.16431770833333337,77.93776666589704,-153.24,346.23,499.47,1.13,76.17397859717167,890.625,875.5615234375,0.13653385314842453,0.045595976308831845,0.2306556739613304,62.42880985214642,0.20143347424933095,65.33758489567853,0.009375,8,5.069213291666667,0.006362326956907894,7.256384129878488e-06,35.16633333333333,0.013287420951997603,-1.711806019912783e-05,64.53333333333333,0.173730314632255,0.6500000000000057,7.298613090986605e-05
S098,14445.0,14474.984375,N2,0.008692708333333155,67.95159679882245,-142.46,149.24,291.70000000000005,-0.315,30.236784373248323,906.25,913.3544921875,0.5079564432743116,0.1529193630552463,0.5018358224642132,62.36704024478786,0.29439107495392264,63.00793600809346,0.10520833333333333,69,5.08142495,0.006662629014198045,5.963952138658907e-06,35.13666666666666,0.015129074290545877,-1.4375003899468143e-05,65.37666666666667,0.1101614976094439,0.45000000000000284,0.00017708338137027547
S098,14475.0,14504.984375,N2,0.5899322916666668,91.8831307963727,-572.44,345.44,917.8800000000001,3.175,24.20204023679338,906.25,919.4417317708334,3.7493865238936825,0.5033050488741616,2.287146109541078,62.43344707717692,0.4895774314114851,65.70388116390082,0.1625,119,5.083090058333332,0.004683107266719103,-1.4552601603896241e-06,35.116666666666674,0.013984117975602174,-1.0833336272064284e-05,65.42733333333334,0.12336756281760239,0.45999999999999375,-0.00010548613972605776
S098,14505.0,14534.984375,N2,-1.4952187499999998,81.52916858243935,-243.28,190.33,433.61,0.41,27.77514498207639,937.5,928.4016927083334,0.4433096406576334,0.29720193985833193,0.49434299833212964,62.61449635915686,0.4562663941891336,63.50590523722971,0.31145833333333334,212,5.086100283333334,0.005086242260882657,2.956858440988075e-06,35.09733333333335,0.015040685563570716,-1.3819448193208986e-05,65.25333333333334,0.1783130829624,0.5300000000000011,-0.00014069448261026695
S098,14535.0,14564.984375,N3,0.11140104166666666,83.22156376808736,-189.7,161.79,351.49,3.26,36.19485746121833,937.5,938.3138020833334,0.2840810446519717,0.19741988090108853,0.4782600118020414,62.6088276776922,0.4248884069682108,63.50590523722971,0.31875,222,5.091565725,0.005138392527439129,6.624700147760019e-07,35.08733333333335,0.013399834161495013,-1.1111114125207291e-06,64.99166666666667,0.13396724309405875,0.480000000000004,-0.00017017365727367196
S098,14565.0,14594.984375,N3,0.9395156250000001,83.68748728793013,-154.43,218.02,372.45000000000005,1.72,23.416784102936173,921.875,922.3307291666666,0.1592592172022985,0.19741988090108853,0.4480753110527292,62.56949790921325,0.3934544306007867,63.50590523722971,0.271875,194,5.093113575,0.0053329891019054275,6.421175786993533e-07,35.09200000000001,0.01492201952373266,1.2430558927559947e-05,64.54566666666668,0.09854553375076093,0.2600000000000051,0.00010961808529136671
S098,14595.0,14624.984375,N2,-0.7400520833333333,89.28720785101649,-624.33,196.57,820.9000000000001,4.19,28.111319099087396,906.25,913.4195963541666,9.481879419523795,0.26531027106117766,7.976676001069722,62.09569523195667,0.5319464195634541,65.01538279515087,0.08958333333333333,62,5.089462816666667,0.005742774499292344,-8.906651721639269e-07,35.08400000000001,0.01724335620850441,-1.63194488713789e-05,64.42699999999999,0.23049439617193768,0.7099999999999937,-0.000341007036948521
S098,14625.0,14654.984375,N3,0.028703125000000183,65.36187822372226,-121.43,123.94,245.37,-0.5,19.129700256962135,906.25,910.8317057291666,0.04559597630883185,0.04559597630883184,0.49282944247985033,61.84946717426439,0.3004750565200033,62.928530890209096,0.4166666666666667,198,5.087605391666667,0.006342492051362608,-2.6803937392561005e-06,35.07533333333334,0.014544949486182098,-5.555557062596493e-06,64.01766666666666,0.1212348501417342,0.4199999999999946,0.0001982986649030656
S098,14655.0,14684.984375,N3,0.3919218750000002,65.24349417921029,-115.9,135.08,250.98000000000002,0.54,40.51591622690545,937.5,933.3658854166666,0.0,0.04559597630883184,0.49999023427963085,61.90095164865647,0.3032765361176867,62.52999280345393,0.0010416666666666667,1,5.087381191666666,0.005021422516405504,-8.509253610366345e-07,35.074666666666666,0.01231079020841485,3.6805565539709948e-06,64.49333333333334,0.19917050205512074,0.7199999999999989,0.0002499306233535736
S098,14685.0,14714.984375,N3,0.17301041666666653,66.9974467734895,-122.02,127.3,249.32,1.005,23.57021339549364,921.875,922.3714192708334,0.03225804701500421,0.04559597630883184,0.48465605645194976,61.97428279420714,0.29534806072433084,62.928530890209096,0.0020833333333333333,2,5.086217666666667,0.005310921031756716,1.3327013163794082e-06,35.07133333333333,0.014544949486182597,-2.638889604733748e-06,65.034,0.0883025103455913,0.30000000000001137,-0.00012402781142247259
S098,14715.0,14744.984375,N3,-0.3558645833333331,70.12703083350478,-185.32,207.57,392.89,0.4,51.83667522647441,921.875,922.2737630208334,1.7467451750605243,0.12489144591960205,1.9787400856072253,62.030832121494996,0.3335910394041624,63.733821476512766,0.08645833333333333,59,5.090989291666667,0.0050218579171388954,3.6908692737818003e-06,35.068,0.013012814197297457,-6.4583350852698585e-06,64.75266666666667,0.1455090680641208,0.4399999999999977,0.0001956250530666928
S098,14745.0,14774.984375,N3,0.54909375,70.1218073865604,-128.06,124.14,252.2,0.895,21.894264820756657,906.25,901.708984375,0.10642856726723121,0.0,0.045595976308831845,62.017111841044034,0.07722626130535536,62.68971207462992,0.013541666666666667,13,5.096401375,0.006089202157730375,5.328319370746333e-06,35.04233333333333,0.01801542548916139,-1.4548615057676085e-05,65.111,0.14686388255796606,0.45000000000000284,0.00023211811852162577
S098,14775.0,14804.984375,N1,0.08219270833333342,72.26887923274175,-134.23,128.27,262.5,-0.19,56.619553428244366,906.25,899.365234375,1.6053823856535447,0.8484507685170791,2.1391418219405183,62.042014300539705,1.235298154951191,77.56932383358772,0.0125,6,5.106083058333334,0.0060190674890936175,2.6483590083439228e-06,35.044333333333334,0.01542364706834489,6.493057316909701e-06,65.88033333333333,0.1588811575430596,0.5600000000000023,0.00020378477750238405
S098,14805.0,14834.984375,N1,-0.775411458333333,112.90460185778095,-336.24,352.65,688.89,0.62,115.23696091906015,921.875,868.0094401041666,8.171979298782041,1.2985364190492394,13.584672735599241,62.6657008036735,1.662874354185417,85.67963585356792,0.019791666666666666,10,5.1042470416666665,0.010649513052557756,-4.395121634961352e-06,35.09400000000001,0.022150996967782086,3.138889740367277e-05,66.28866666666666,0.1882681303059247,0.5899999999999892,5.2708347631388733e-05
S098,14835.0,14864.984375,N1,-0.3764947916666665,114.98566472542971,-700.32,378.76,1079.08,7.869999999999999,28.292094821527314,968.75,953.2145182291666,8.46394460579289,5.3607651258355835,5.628736316975744,62.251699005264484,1.151055729009892,77.3950902835574,0.025,11,5.10611525,0.015476919316760042,-2.042749512464602e-05,35.14133333333333,0.01454494948617971,1.6666671187788815e-05,66.11266666666667,0.09146705539276039,0.3399999999999892,0.00010583336204246808
S098,14865.0,14894.984375,N1,0.7897083333333335,148.5108602626643,-765.86,747.4,1513.26,14.43,19.436168233884956,968.75,957.3160807291666,12.915410515196243,1.7905701586521414,7.3849744225841585,62.880028669402876,1.3960191743216768,81.57205403813245,0.035416666666666666,17,5.124475416666667,0.015562241613696149,1.246979027500824e-05,35.139333333333326,0.013888444437331341,-1.3402781413512504e-05,65.17433333333334,0.6637805025424864,1.789999999999992,-0.0011026044657672714
S098,14895.0,14924.984375,N1,0.03663541666666757,90.39543307124488,-230.06,229.99,460.05,7.45,46.07929929951105,937.5,927.44140625,0.9771610665596537,0.4311430523587528,0.2991234300232747,62.95766714722891,0.2735977194109313,64.38167441127949,0.10416666666666667,76,5.1174089,0.006268612134276583,-3.173017353791635e-06,35.118000000000016,0.015999999999999955,-1.6944449040920057e-05,63.508666666666656,0.46520055412214956,1.4299999999999997,-0.0007266668637876681
S098,14925.0,14954.984375,N1,0.16094791666666694,100.23361819310236,-505.12,198.88,704.0,12.235,33.54411240658672,937.5,929.3294270833334,0.7097527139296865,0.8924451430386819,0.8067397306787087,62.783356352371676,0.7438347471795871,70.78135347674555,0.040625,35,5.10755615,0.005720166923045139,-2.4409963218848247e-06,35.061,0.022561028345358218,-2.8506952177452012e-05,63.49599999999999,0.3390535847522232,1.0999999999999943,0.0005968057174494668
S098,14955.0,14984.984375,N1,0.3183697916666663,91.25279404568664,-184.65,160.99,345.64,10.695,41.40358842336733,953.125,939.7135416666666,0.07198059875565237,0.29292696461272083,0.4182664600433822,63.108874267358914,0.3875526287077389,63.340350488452465,0.0,0,5.097404766666667,0.00520408938677612,-4.838557736153924e-06,35.02166666666667,0.01714318782749811,1.7361115820586982e-07,64.534,0.23605931458004306,0.730000000000004,0.00031756953059069234
S098,14985.0,15014.984375,N1,-0.284838541666667,99.27126209163252,-344.6,224.2,568.8,9.835,42.57119887516986,937.5,916.9026692708334,2.586016751471051,0.8103008432657727,0.6526355489262152,62.98095287239983,0.3659921919269858,64.90762667052309,0.09583333333333334,71,5.104481866666666,0.008986872959056562,6.240354557387829e-06,34.98800000000001,0.018867962264113067,-2.5347229098098012e-05,64.70966666666666,0.3292768170130158,0.8400000000000034,0.00054177098029812
S098,15015.0,15044.984375,N1,-0.14914583333333303,96.29623910479958,-202.14,179.58,381.72,7.015000000000001,28.33391820079546,921.875,918.4651692708334,0.9556978026188797,0.15743991358257567,0.36822437821026105,63.0329700522271,0.3548751823424664,65.86349520030045,0.011458333333333333,6,5.101888016666667,0.006334561588333403,-6.15442180838263e-06,34.96266666666667,0.01590248058916811,-1.4652781752599114e-05,65.27,0.17167799315384966,0.6299999999999955,0.0001972917201854693
S098,15045.0,15074.984375,N1,2.9183645833333336,109.73462275024193,-198.73,442.47,641.2,10.235,36.325586337370204,937.5,930.6070963541666,8.011709095997489,1.725296874614788,6.998556321242063,62.83035631948375,1.5670672502185603,80.62877898120497,0.021875,12,5.032791183333333,0.20646714068643723,-0.0001222678235318532,34.94266666666666,0.012092238098146057,-2.1527783617559033e-06,65.56433333333334,0.3014374820017504,0.9300000000000068,-0.00041711816870610227
S098,15075.0,15104.984375,N2,-3.519328125,148.4263537861336,-619.99,486.86,1106.85,6.96,23.15329713422613,906.25,914.1927083333334,0.2870750936166354,0.11557806855349137,0.33538431521001233,62.49618233207241,0.19393448127703267,63.08724118235002,0.010416666666666666,10,5.047501325,0.005983314274104974,-4.295790878849514e-06,34.94066666666666,0.01691810338726673,2.7777785312993076e-06,64.483,0.16180543872194114,0.6000000000000085,-0.00024100700982178055
S098,15105.0,15134.984375,N1,1.644484375,126.6952316373034,-238.94,231.33,470.27,13.885000000000002,39.59907001421244,906.25,914.5751953125,0.07216126567549165,0.30617913012193076,0.06454972243679027,62.52597783664622,0.09688775926247961,63.35613624582863,0.004166666666666667,4,5.033346825,0.005702488071977149,-5.790438853743184e-06,34.95,0.014605934866804117,4.027778870384042e-06,64.64399999999999,0.14022838514366548,0.6099999999999994,0.00017687504798042712
S098,15135.0,15164.984375,N1,-0.916208333333334,141.13682891855606,-294.83,309.29,604.12,4.77,48.37506211173062,906.25,897.8922526041666,1.2782892620608215,0.2313813440813431,0.8549691352453737,62.42723895567251,0.36833368661998606,67.63135367564367,0.015625,11,5.0247112,0.005264913947698227,-3.690547442097361e-06,34.94666666666667,0.013743685418726077,-4.236112260230668e-06,65.729,0.3241537700947919,1.0,0.0005250348646470461
S098,15165.0,15194.984375,W,0.4225989583333333,161.39278126271375,-797.58,433.68,1231.26,14.84,76.59958267917172,921.875,913.9322916666666,6.4666851240071646,5.11784296586598,5.531933710882409,62.781014459812916,3.243977506615587,97.99489782636645,0.04479166666666667,24,5.020163874999999,0.013148618588760905,-1.611078713942792e-05,34.92133333333333,0.015216949614019173,-1.2708336780691318e-05,66.05066666666667,0.23255011407340925,0.9200000000000017,0.000360972320142231
S098,15195.0,15224.984375,N1,-0.36734895833333336,45.205476740046606,-134.59,122.29,256.88,2.485,97.31239613989105,937.5,890.4541015625,0.7297252324886097,0.35423406221498993,0.4737820184870534,62.99757197353462,0.40528850546107603,64.07807737440318,0.06145833333333333,44,5.053137391666667,0.024644704767047422,4.251662633372022e-05,34.846999999999994,0.03348133808556538,-4.982640240516421e-05,67.314,0.12268115856425177,0.6000000000000085,7.437502017551561e-05
S098,15225.0,15254.984375,N1,-0.73984375,47.273240190414135,-133.22,181.07,314.28999999999996,-0.9650000000000001,60.11796974607938,921.875,922.4934895833334,0.38235694265597203,0.05589199343873464,0.22858828527872255,62.784304633802414,0.19323987656806552,64.00781202322104,0.075,38,5.1111108750000005,0.01386342818747854,2.290981459142104e-05,34.766666666666666,0.020055478608655874,-1.8402782769851464e-05,66.56833333333333,0.3023031958518176,1.2600000000000051,-0.0003454514825986009
S098,15255.0,15284.984375,N2,0.5471145833333331,51.51127256593328,-255.03,234.97,490.0,2.135,29.30750223195666,984.375,984.7493489583334,5.334555524023429,1.415293452099442,3.585124915497677,62.49786450959194,0.8852109394691007,78.44106067615353,0.028125,19,5.134445483333334,0.012055289740734386,7.2508969322095e-06,34.714000000000006,0.028354893757515553,-4.0000010850697e-05,63.89666666666666,0.8341476021797474,2.700000000000003,-0.0014115976051425794
S098,15285.0,15314.984375,N1,-0.19305729166666666,31.979711829938122,-94.11,65.21,159.32,0.535,69.88849660132925,937.5,895.5078125,0.48768581750674506,0.36010794822525094,0.43539174569831046,62.46400002470539,0.29359992099034504,64.41273166075166,0.041666666666666664,34,5.1544815999999996,0.008590893786834235,-1.7242769434345635e-06,34.68066666666667,0.018607047649271888,-1.583333762840234e-05,62.992000000000004,0.18221598905328543,0.5600000000000023,-0.00021638894758814784
S098,15315.0,15344.984375,N2,0.16978645833333322,32.451899103490845,-80.73,84.78,165.51,1.795,35.93121533565722,937.5,929.9967447916666,0.5649483752226099,0.45242282759665825,0.40246096256517705,62.41305987343066,0.22022466307295713,63.76519426771944,0.051041666666666666,36,5.164195408333334,0.007202538905941218,1.0091729951098617e-05,34.66333333333332,0.00977525219907767,-1.0208336102523127e-05,63.83066666666666,0.502115081983758,1.529999999999994,0.0008906946860608423
S098,15345.0,15374.984375,N2,-0.2956979166666666,32.102447952031824,-93.23,67.82,161.05,0.26,39.65147076776304,953.125,939.2252604166666,1.1678189064507773,0.48293356312114905,1.1324675001468647,62.41789265260023,0.32820492857554306,66.46803743153546,0.036458333333333336,22,5.180377941666666,0.006606087236147982,2.4003637153764635e-06,34.661333333333324,0.010241527663825365,-3.333334237558291e-06,64.38366666666666,0.2370581269553024,0.6300000000000097,-0.0004089931665020553
S098,15375.0,15404.984375,N2,0.33160937500000015,33.911194422336344,-93.15,89.33,182.48000000000002,1.475,28.64019164970204,937.5,939.6158854166666,0.710779324589488,0.8483893799020327,0.8637615321227265,62.42705981975586,0.36899944980412075,64.38167441127949,0.11666666666666667,64,5.210490816666667,0.009458122892504752,1.3475985426428376e-05,34.65866666666666,0.011469767022723421,-1.194444768458282e-05,64.87866666666667,0.31353610460183007,1.0800000000000125,0.0002732639630164826
S098,15405.0,15434.984375,N2,-0.08564583333333324,64.25840387159151,-210.86,185.06,395.92,3.065,20.575091090154555,968.75,969.4417317708334,6.338539184469523,2.6793138810643087,3.3330141448740593,62.63800482017599,3.605715668344013,122.3315167894194,0.010416666666666666,3,5.221378958333334,0.008735113307217645,-8.961496571586469e-06,34.64199999999999,0.009797958971130762,8.055557740763843e-06,64.882,0.04118252056395111,0.10000000000000853,4.69444571789469e-05
S098,15435.0,15464.984375,N2,-0.8089270833333333,83.17834104535376,-219.15,178.4,397.55,2.67,37.716873318910544,937.5,949.2594401041666,0.6632390728148736,0.5510396975390148,0.5659606125257796,62.58569749816387,0.37948693652153775,66.04543890383347,0.003125,2,5.220151333333334,0.005179435576285224,-1.7014791941946525e-06,34.628,0.019390719429664367,-2.3750006442599832e-05,63.56033333333333,0.5287626016360174,1.6799999999999997,-0.0008041321625792554
S098,15465.0,15494.984375,N2,0.68975,82.06466237275437,-232.82,159.75,392.57,4.105,26.764314948887847,953.125,958.5042317708334,0.49594602185845,0.25828082463667335,0.16061608276155495,62.54248244626279,0.3344365294678683,64.02343321003646,0.016666666666666666,10,5.222606441666667,0.005353832757622969,2.297516899283109e-06,34.61333333333334,0.012736648783028541,1.1805558758014743e-06,63.48466666666666,0.10388241215699416,0.38000000000000256,1.3888892656498882e-06
S098,15495.0,15524.984375,N2,0.7083281250000003,88.29645256043369,-218.15,216.03,434.18,4.529999999999999,30.081436393296467,953.125,946.4192708333334,0.19290530474101078,0.3172537731804339,0.12447371850002001,62.150071310740664,0.16736507953830182,62.8887907341205,0.05,37,5.2261395833333335,0.004844946507415924,5.613326175490056e-08,34.60266666666668,0.015902480589167593,-5.4861125993138e-06,62.842999999999996,0.12296747537458787,0.480000000000004,-6.0034738507686944e-05
S098,15525.0,15554.984375,N2,-1.0775729166666659,90.38980350315202,-204.87,222.28,427.15,2.51,43.17324824953914,953.125,964.4938151041666,0.5049999570269509,0.4698136081350655,0.21601464392232506,62.298605854551475,0.3584693095791154,63.28506932918696,0.30520833333333336,74,5.236750341666666,0.006130308604923382,4.574609964900671e-06,34.603333333333346,0.010749676997729848,-6.666668475115126e-06,62.568,0.03553402125662976,0.10000000000000142,-2.0833338984737875e-05
S098,15555.0,15584.984375,N2,-0.14751041666666687,85.15491347911352,-176.99,154.66,331.65,5.225,25.902112236938535,953.125,943.65234375,0.3944259519823996,0.43999289766995103,0.0,62.205631204759406,0.2662794599550553,62.77738446287803,0.19270833333333334,153,5.24065725,0.0057650185129075665,6.572697095458341e-07,34.59333333333334,0.014681810363696379,-6.250001695437983e-07,63.19199999999999,0.1868939092997237,0.740000000000002,0.00030076397047633813
S098,15585.0,15614.984375,N2,1.3798593749999994,85.8787896533479,-188.25,152.21,340.46000000000004,8.420000000000002,31.59194361898127,953.125,953.4830729166666,0.3736070773739289,0.49031859682138196,0.05581428468591172,62.15955512881229,0.26243638240665784,63.51377803280167,0.16979166666666667,124,5.244510666666667,0.005023126556792662,2.291471975768255e-06,34.582,0.011075498483891898,-2.9166674578635352e-06,63.198,0.09877246579892644,0.29999999999999716,-0.00016069448803561582
S098,15615.0,15644.984375,N2,-0.23775000000000024,91.73468697508412,-262.7,167.27,429.97,2.48,21.99828360585967,937.5,935.5061848958334,0.3660254217605657,0.4818944098266986,0.07880950133074055,62.16484529253728,0.26561517571597715,63.51377803280167,0.16354166666666667,133,5.250253508333333,0.004282019797937718,2.3391761987782766e-06,34.58266666666668,0.010934146311239526,3.6805565539709948e-06,63.228,0.055220769039676654,0.17999999999999972,8.930557978124358e-05
S098,15645.0,15674.984375,N2,-0.44223437499999935,98.4754495460103,-589.02,280.41,869.4300000000001,4.205,27.444387856921473,937.5,940.3889973958334,0.4976986970603355,0.48491904930101487,0.12499565964686754,62.40290697527088,0.34173728070158277,64.78425734698207,0.31875,173,5.256263333333334,0.005887885711828618,4.765323775315676e-06,34.59000000000001,0.012649110640673247,-6.944446328248139e-07,63.62,0.17667295586289733,0.6099999999999994,0.00031326397386718
S098,15675.0,15704.984375,N2,-0.7842083333333331,94.00336902594199,-235.92,272.27,508.18999999999994,6.275,33.51350312727408,937.5,926.9449869791666,0.5014518850852547,0.4988876515698589,0.1363589014329464,62.39504795628374,0.33489879026178315,63.51377803280167,0.2833333333333333,170,5.263436766666667,0.0042253610629415135,-9.727346388709653e-08,34.60266666666668,0.013148721948876303,3.2638897742751275e-06,64.14766666666667,0.07898030696882011,0.29999999999999716,2.7326396301649055e-05
