participant_id,window_start_time,window_end_time,sleep_stage,BVP_mean,BVP_std,BVP_min,BVP_max,BVP_range,BVP_median,SDNN,median_nni,IBI_mean,x_std,y_std,z_std,mag_mean,mag_std,mag_max,movement_density,burst_count,EDA_mean,EDA_std,EDA_trend,TEMP_mean,TEMP_std,TEMP_slope,HR_mean,HR_std,HR_range,HR_trend
S100,6183.0,6212.984375,W,0.04537499999999971,26.461451883766223,-117.58,108.2,225.78,0.67,54.00752384454395,750.0,746.2727864583334,0.6402819203288501,0.4986429065612875,0.5005162265656884,64.67598055152045,0.4131158425280353,66.46803743153546,0.121875,95,0.16095259999999997,0.0026832277776339952,4.464970829256412e-06,32.151999999999994,0.007483314773546393,6.6666684751149036e-06,74.13966666666667,0.6091495893639118,2.530000000000001,0.0007736460431982529
S100,6213.0,6242.984375,W,0.146734375,43.98019051601842,-230.11,300.71,530.8199999999999,-0.775,56.38365701959688,812.5,793.5221354166666,0.6758795388541264,0.5824686671949736,0.5570102482599998,64.65061862640783,0.40518870842340676,66.84309986827361,0.10208333333333333,83,0.16792237499999998,0.002814858146403649,4.551464125288658e-06,32.17166666666666,0.010354816378007416,1.2881947938898197e-05,75.69900000000001,0.5726741365442184,1.9200000000000017,-0.0008260766129765122
S100,6243.0,6272.984375,W,-0.3349791666666667,19.530235296297192,-63.33,38.98,102.31,0.38,42.659557215874685,765.625,790.5843098958334,0.42934361238988983,0.3318963165365888,0.49132999596051086,64.5764662038619,0.44348538662455816,65.4446330878247,0.08020833333333334,71,0.17527628333333337,0.0018533553229360899,2.860448258585131e-06,32.169,0.010440306508911966,-7.187501949735526e-06,74.24600000000001,0.17304334717058562,0.8299999999999983,9.513891469694598e-06
S100,6273.0,6302.984375,W,0.22014583333333315,16.685755688472707,-54.72,34.11,88.83,1.165,21.468086618646947,812.5,820.9798177083334,0.38085561340735,0.2748085665766061,0.48218141288373567,64.57959179884611,0.423613142393065,65.4446330878247,0.059375,51,0.17984455833333332,0.0015296149014040216,1.8877976041117685e-06,32.16599999999999,0.012806248474866848,-4.166667796947901e-06,72.99033333333334,0.24123962268987892,0.8999999999999915,-2.121528353279168e-05
S100,6303.0,6332.984375,W,-0.22539062500000007,16.808485095379023,-52.94,45.28,98.22,1.77,62.3155967651165,796.875,803.7434895833334,0.514037961673714,0.3121091305537215,0.48383594556649284,64.60564778527703,0.3977322106597171,66.2268827591938,0.04479166666666667,40,0.18363338333333334,0.0017814080815623165,2.6153735393265784e-06,32.15766666666665,0.008825468196581927,-5.312501441107289e-06,73.011,0.30180954259267595,0.9200000000000017,-0.0005351043118230025
S100,6333.0,6362.984375,W,0.16832812499999986,18.037852011078925,-56.21,46.29,102.5,2.6,80.13080590502281,796.875,811.9222005208334,0.8065964748645316,0.8860016449931432,0.6721123611730904,64.78888689681904,0.3639042976634971,65.97726881282674,0.28854166666666664,146,0.19022939166666664,0.0023088811334202324,3.513244659625833e-06,32.13766666666666,0.014533486237726672,-1.80208382217969e-05,72.09066666666666,0.49489347899881825,1.6999999999999886,-0.0008065279965624956
S100,6363.0,6392.984375,W,-0.2811093749999999,16.628119380551443,-56.12,81.92,138.04,0.1,75.20497181601746,875.0,837.01171875,0.7964432381514845,0.6950898910193,0.5911639589732182,64.70465634713358,0.25647676829938537,65.4446330878247,0.1,53,0.19563014166666667,0.001706494537035077,1.8571048874524992e-06,32.10800000000001,0.010770329614268315,-9.513891469696487e-06,70.15266666666666,0.25353413094799504,1.0499999999999972,-0.00043062511681453723
S100,6393.0,6422.984375,N1,-0.16544791666666658,179.6696390961043,-1100.24,838.5,1938.74,1.975,48.96930274091511,750.0,764.794921875,26.958453257557835,19.60026927252673,31.211449815882872,65.32827772625089,7.481886748797529,123.18279100588686,0.075,26,0.11232539166666666,0.10817620924386098,-0.00014250459659955416,32.07333333333334,0.05287301349039657,-5.972223842291847e-05,70.59400000000001,0.681300716766588,2.030000000000001,0.0011203475261359391
S100,6423.0,6452.984375,N2,0.37872395833333333,18.130748593746326,-44.79,38.96,83.75,3.735,14.428240457671887,796.875,802.5227864583334,0.0,0.0,0.21137108216357317,63.69721979263957,0.1535111988303779,64.389440128021,0.046875,37,0.0004697,0.0007003320712347823,-7.227866544017613e-08,31.878,0.05479659356809203,-9.458335899071179e-05,72.29833333333333,0.447780328087581,1.3200000000000074,0.0007676738193559608
S100,6453.0,6482.984375,N2,-0.18369791666666652,19.36805427040222,-40.66,33.62,74.28,4.2,29.521545214921044,796.875,800.68359375,0.045595976308831845,0.0,0.35501736068661327,63.76927827723742,0.2581627398711147,64.389440128021,0.146875,117,0.0001708,0.00043545626646082386,-3.2914592261987913e-07,31.771333333333327,0.017074997966487235,-1.8611116159699083e-05,73.493,0.28213649179076433,1.0999999999999943,0.00047461818430397757
S100,6483.0,6512.984375,N2,0.019421874999999953,22.465348120520815,-49.18,37.1,86.28,4.635,15.959146463977854,828.125,821.1100260416666,0.3736070773739289,0.0,0.47729594061814057,64.02815861632294,0.4045419669094276,64.389440128021,0.0,0,3.2025e-05,0.00019999606089870868,-1.3899743353880034e-09,31.754666666666665,0.013349989596333572,7.291668644658222e-06,74.643,0.1684666139031695,0.6599999999999966,-0.00011302086399220439
S100,6513.0,6542.984375,N2,0.16461458333333331,23.332493898383873,-47.92,39.94,87.86,5.085,16.266759641699522,812.5,806.3232421875,0.5508033511129197,0.04564354645876384,0.41480835601783894,63.89195485457331,0.3904866978119319,64.4980619863884,0.29583333333333334,174,1.0675e-05,0.00011645050182373625,-6.949871676940015e-09,31.776666666666664,0.01490711984999828,1.1111114125193481e-05,73.88533333333334,0.1648784063753921,0.5999999999999943,-0.00019868060945112148
S100,6543.0,6572.984375,N2,-0.09835416666666665,22.85794191622245,-50.83,41.92,92.75,4.08,19.628378216255765,796.875,799.3733723958334,0.32471775939096537,0.0,0.3570714214271425,63.84459132409841,0.2858326879951096,64.4980619863884,0.06979166666666667,61,1.0675e-05,0.00011645050182373625,2.3629563701596054e-08,31.806666666666665,0.011642832797715072,1.1180558588475941e-05,74.00533333333333,0.23410444013065893,0.75,0.00038145843681055945
S100,6573.0,6602.984375,N2,0.1397604166666668,32.75529922847243,-232.93,251.72,484.65,4.45,18.08182342073633,796.875,796.0205078125,3.8667901381148444,1.119639524548216,3.943978219096593,63.454184938200086,0.6485217770966326,68.9129886160802,0.14479166666666668,110,0.0,0.0,0.0,31.89666666666667,0.05299895177160517,8.583335661712197e-05,75.152,0.2072582929583266,0.75,0.00030187508188885405
S100,6603.0,6632.984375,N2,0.20104166666666662,25.616534127117273,-77.31,108.64,185.95,3.065,24.674602632373052,781.25,785.498046875,0.2711836676446836,0.0,0.500952868084081,63.40459827351189,0.3301531582605622,64.13267497929586,0.165625,82,0.003788975,0.006154376409600055,6.9478597406303535e-06,32.00000000000001,0.023237900077244467,3.451389825138347e-05,75.70166666666667,0.20269983281251788,0.5900000000000034,0.0003309375897725693
S100,6633.0,6662.984375,W,-0.2834635416666668,21.295711411321665,-66.21,60.44,126.64999999999999,1.99,26.834093006113843,812.5,815.4866536458334,0.2565462379810357,0.0,0.46756679372814985,63.718507578387744,0.3206768616713331,64.57553716385176,0.0020833333333333333,1,0.002251983333333333,0.0021109033452660865,-2.851923950717217e-06,32.050000000000004,0.012649110640673249,7.77777988763598e-06,75.486,0.2853489092321886,0.75,-0.0005052779148431837
S100,6663.0,6692.984375,N1,-0.16009375000000006,16.746611982961735,-44.22,31.97,76.19,2.725,21.70762103981201,812.5,812.353515625,0.0,0.06441510347391796,0.2943625410196677,63.414981573130824,0.1782659421949504,63.96092557178953,0.09583333333333334,75,3.2025e-05,0.00019999606089870868,3.0857430245613675e-08,32.09133333333334,0.021249836600679542,2.8750007798939247e-05,74.80166666666668,0.33680937569425795,0.9000000000000057,-0.0005792015460073646
S100,6693.0,6722.984375,N1,0.17783333333333334,15.253202849911737,-43.62,33.11,76.72999999999999,3.37,40.33724279346312,781.25,773.388671875,0.045595976308831845,0.0,0.486198404860494,63.58636758050417,0.2973907368152474,63.96092557178953,0.38333333333333336,204,2.135e-05,0.00016399246171699478,7.78385627817282e-09,32.11000000000001,0.012649110640673249,2.3611117516031956e-06,74.643,0.4760192573135399,1.4000000000000057,0.0008181599441623122
S100,6723.0,6752.984375,N2,-0.15030208333333342,12.429622237672618,-33.71,25.87,59.58,2.08,16.066679177074917,781.25,777.685546875,0.0,0.03225804701500421,0.4679843283671177,63.5522822871105,0.28343035491762675,64.17164482853778,0.32395833333333335,199,0.000138775,0.0003981359998480418,-1.6318298697455158e-07,32.12733333333333,0.015260697523012717,6.666668475116163e-06,76.32166666666667,0.5076290202719128,1.5400000000000063,0.0009100349690850067
S100,6753.0,6782.984375,N2,0.1066979166666667,13.772671129223468,-51.37,59.85,111.22,2.24,37.45113650766112,781.25,794.8079427083334,0.23825719937822562,0.0,0.318518434404597,63.84547038820758,0.2694022553277499,63.96092557178953,0.0,0,0.0,0.0,0.0,32.13766666666666,0.013585122581541964,6.597224011835172e-07,76.97000000000001,0.18652971166367444,0.6099999999999994,-0.00030534730505298084
S100,6783.0,6812.984375,N2,0.023328124999999967,13.718798246560592,-33.91,43.97,77.88,3.01,22.723113158598732,796.875,794.2464192708334,0.3094837070518504,0.0,0.2221950938302244,63.84754304289286,0.27118084853047003,63.96092557178953,0.0,0,0.0,0.0,0.0,32.13233333333333,0.011455226851625495,5.104168051260565e-06,75.75466666666667,0.316519966019347,0.9699999999999989,-0.0005148612507761636
S100,6813.0,6842.984375,N2,0.12604166666666666,13.422069479900031,-32.7,22.34,55.040000000000006,3.59,18.439512556046022,796.875,807.5846354166666,0.49716972391226727,0.0,0.0,63.62003844731444,0.3792531637717961,63.96092557178953,0.0,0,0.0,0.0,0.0,32.135,0.01565247584249723,-8.437502288817942e-06,75.08166666666666,0.27432442269854435,0.7399999999999949,-0.00047593762910634705
S100,6843.0,6872.984375,W,-0.2623333333333333,12.892960117724021,-40.41,40.4,80.81,1.87,87.87687368311185,812.5,848.2747395833334,0.3642543158251144,0.0,0.49607837082461076,63.368957171953625,0.1861234512614901,64.13267497929586,0.04895833333333333,29,0.000149425,0.0011944441012628712,-4.602824599290526e-07,32.11733333333334,0.015040685563571504,-6.875001864963972e-06,74.32866666666669,0.42920650300551455,1.1700000000000017,-0.00070944463689362
S100,6873.0,6902.984375,N1,0.1009114583333333,16.82342775753484,-35.68,42.52,78.2,4.275,16.372112301041568,843.75,851.5625,0.0,0.0,0.0,63.35613624582865,2.1316282072803006e-14,63.35613624582863,0.0,0,0.0,0.0,0.0,32.10200000000001,0.014236104336040847,-1.0833336272063004e-05,73.10833333333333,0.49644122400228724,1.6200000000000045,-0.0008796877386305714
S100,6903.0,6932.984375,N1,-0.08005208333333336,13.30550324730162,-31.09,23.98,55.07,2.725,18.74582986022596,828.125,831.4208984375,0.03225804701500421,0.0,0.04559597630883185,63.3582051181051,0.03722739301367686,64.13267497929586,0.003125,3,1.0675e-05,0.00011645050182373625,3.1969409713924077e-08,32.08933333333334,0.010934146311237734,-8.402780057177139e-06,71.9,0.2316175007780436,0.730000000000004,-0.00010569447311590504
S100,6933.0,6962.984375,N2,0.009671875000000042,12.505577182744664,-29.36,24.46,53.82,2.63,18.806751337479444,796.875,798.6735026041666,0.0,0.0,0.07198059875565237,63.3592861902347,0.04353309780369307,63.96092557178953,0.005208333333333333,5,0.0,0.0,0.0,32.076666666666675,0.018135294011648352,-1.6805560114356696e-05,72.24833333333332,0.6762942324823493,2.0,0.0011914239343055388
S100,6963.0,6992.984375,N2,-0.013619791666666662,11.956251837045683,-61.01,43.88,104.89,1.77,96.24771939778064,812.5,872.1272786458334,0.0,0.032258047015004204,0.17399263633843817,63.37483007315318,0.10545867577004035,63.96092557178953,0.03125,28,0.0,0.0,0.0,32.065333333333335,0.01231079020841485,3.5416676274060514e-06,74.22933333333334,0.34239288673815826,1.0500000000000114,0.0006019446077323703
S100,6993.0,7022.984375,N2,-0.0007031250000000636,11.889796705727642,-27.13,21.25,48.379999999999995,2.4850000000000003,21.73079537041759,828.125,833.6751302083334,0.0,0.0,0.1899835519196333,63.378815845552175,0.11490002430913288,63.96092557178953,0.0375,36,0.0,0.0,0.0,32.04633333333334,0.01559558342038576,-6.597224011823819e-07,74.154,0.48186858512807507,1.4200000000000017,-0.0008193057778064711
S100,7023.0,7052.984375,N2,-0.7439635416666666,28.33786972756752,-211.77,256.9,468.66999999999996,1.55,33.24635602189008,812.5,815.0065104166666,17.550789857136774,12.716696530928234,19.869328740784756,64.37853043726936,7.328783578301676,159.57443404254957,0.051041666666666666,17,0.0032659916666666665,0.009542841113015762,8.251704712376496e-06,32.031666666666666,0.016749792701867057,-3.437500932481936e-06,72.66599999999998,0.19806732862000737,0.6999999999999886,-0.0002754167413782375
S100,7053.0,7082.984375,N2,0.8721718749999994,150.28807816373043,-827.39,707.94,1535.33,-0.33999999999999997,23.280451147154878,828.125,828.8981119791666,8.593862625524618,11.997394827165142,11.342520020553927,64.07971250352549,3.1673509644791857,81.6394512475433,0.08541666666666667,44,0.04950255,0.008448497970892026,2.1997362737999884e-06,32.03633333333333,0.03291234148799241,4.8229179749668846e-05,73.13033333333333,0.6936352707935846,2.089999999999989,-0.0007096876925151069
S100,7083.0,7112.984375,N2,-0.10147916666666665,9.528890664250095,-33.56,36.18,69.74000000000001,0.54,58.63826106564768,859.375,855.0374348958334,0.48491904930101487,0.31340840191176894,0.10152910775842672,64.12553215226372,0.3170192249567012,64.52906321960671,0.3625,136,0.054903233333333336,0.0015682389578405736,2.003140300331027e-06,32.10333333333334,0.020869967789998122,3.125000847710721e-05,71.08533333333335,0.6579601473915844,2.0799999999999983,-0.0011829864320167186
S100,7113.0,7142.984375,N2,0.05394270833333338,7.90830233749956,-25.48,15.69,41.17,0.91,89.1114083903748,828.125,791.162109375,0.3877897102489956,0.06441510347391793,0.1821904480893551,64.38860138649142,0.27705864274341047,64.52906321960671,0.0,0,0.05599205,0.0010740981088801906,4.642514280195928e-07,32.14966666666666,0.017413277182144027,1.920139409759892e-05,69.17866666666666,0.7319368521638707,2.1700000000000017,0.0005638890418535827
S100,7143.0,7172.984375,N2,-0.023703125000000047,8.186803220057786,-18.38,17.53,35.91,0.875,76.61276311417214,828.125,833.5123697916666,0.36985914877228,0.07880950133074056,0.21794494717703367,64.38907561407055,0.2887904064215498,64.52906321960671,0.0,0,0.056056100000000005,0.0011544803982744796,-2.841107541533082e-07,32.18166666666666,0.02237309892606764,2.746528522821496e-05,70.83566666666667,0.4203703393702054,1.269999999999996,0.0007554515938182477
S100,7173.0,7202.984375,N2,-0.013437499999999984,7.4651648338193946,-17.48,18.2,35.68,0.575,65.35627456685168,828.125,825.5533854166666,0.3781752147557473,0.07880950133074056,0.2304038573895845,64.37848330993701,0.2965974468833359,64.52906321960671,0.0,0,0.0558426,0.0010768530261832398,-1.6679692024656443e-08,32.211333333333336,0.018024674446126585,1.458333728931558e-05,71.85600000000001,0.16952089350087024,0.6400000000000006,0.00028972230081442677
S100,7203.0,7232.984375,N1,-0.08449999999999994,8.909342601075195,-41.3,27.85,69.15,0.755,66.3748852827985,796.875,806.4615885416666,0.23825719937822562,0.04559597630883185,0.31598061649411346,64.40479663942624,0.28373080109095966,64.52906321960671,0.0,0,0.05703805833333334,0.0011205771972205023,4.730394078340414e-07,32.231,0.014685593847940506,-2.4305562148890943e-07,72.766,0.39979661495982316,1.3799999999999955,0.0007139585270069783
S100,7233.0,7262.984375,N2,0.08209375,8.544182693966556,-22.63,19.56,42.19,1.4049999999999998,48.28361143326832,812.5,832.4462890625,0.22008274564480418,0.0,0.33071891388307384,64.40118227879624,0.283600822632371,64.52906321960671,0.0,0,0.056579158333333344,0.0010545212341455668,-5.979580615120609e-08,32.23466666666666,0.0160692943909256,1.2708336780690772e-05,74.71866666666666,0.4154975598270368,1.5499999999999972,0.0006979168559887302
S100,7263.0,7292.984375,N2,0.045645833333333385,9.718310842145664,-35.91,35.74,71.65,0.54,45.394881036721614,812.5,805.9244791666666,0.5078378732977242,0.10204080746882048,0.2157809420003434,64.17127283004977,0.32728943050045917,65.30696746902278,0.4375,189,0.05560775,0.0013595441285592757,-1.557327245368719e-06,32.239333333333335,0.013399834161496097,2.5000006781689034e-06,74.89899999999999,0.39976117870548544,1.2399999999999949,-0.0006844099078802898
S100,7293.0,7322.984375,N2,0.03485416666666671,7.937566428828547,-19.82,16.3,36.120000000000005,0.7,74.6389954927465,828.125,824.1536458333334,0.4990224819584785,0.03225804701500421,0.21794494717703367,64.20224475758626,0.3289778416894962,64.52906321960671,0.0,0,0.05364357499999999,0.001021845753709921,-9.000946452079638e-07,32.24,0.013416407865000306,-8.402780057178495e-06,73.039,0.3910187548784151,1.3499999999999943,-0.000658784900929062
S100,7323.0,7352.984375,N2,-0.12457291666666662,7.754961222830183,-22.14,28.46,50.6,0.245,85.01759438957345,781.25,766.3167317708334,0.4795107460271934,0.0,0.254795584597841,64.25472997513454,0.33461543481417694,64.52906321960671,0.0,0,0.053483449999999995,0.0010843410429841696,3.071572013772784e-07,32.236000000000004,0.011718930554165936,3.4027787008404914e-06,72.56566666666666,0.20511270614523763,0.6300000000000097,0.00027635424163255395
S100,7353.0,7382.984375,N2,0.08992708333333331,8.360473626865675,-21.1,19.16,40.260000000000005,1.335,58.31656214902833,828.125,831.1686197916666,0.4691479792015403,0.0,0.26672362672915867,64.26833132666606,0.3327989671610461,64.52906321960671,0.0,0,0.05459363333333333,0.0011223740013421946,5.557015396325795e-07,32.236000000000004,0.012806248474866737,-3.125000847710037e-06,73.00633333333333,0.11010550495875361,0.4200000000000017,-2.5798618109435186e-05
S100,7383.0,7412.984375,N2,-1.7213593749999998,47.932810339665565,-459.43,321.14,780.5699999999999,-0.35,61.664450644292316,796.875,818.6442057291666,4.651332577688236,1.3920810105487953,4.94703446082572,64.14777976592,0.9920817017892438,70.95068710026705,0.04479166666666667,30,0.07020865000000001,0.023497657196924263,3.2273785230519e-05,32.22866666666667,0.012578641509408312,5.833334915726799e-06,72.51433333333331,0.30855235464270064,1.1199999999999903,0.00018774310648413155
S100,7413.0,7442.984375,N2,1.6202864583333332,32.289333726015855,-147.23,311.13,458.36,3.3449999999999998,57.83899519191633,828.125,842.5618489583334,0.35398126274564307,0.03225804701500421,0.4342088511176262,62.97953212453358,0.34969039855545386,64.10148204214939,0.146875,99,0.10623095833333333,0.0015884051875798444,-1.1302743951482206e-06,32.21033333333333,0.021210584359910092,-2.5520840256302918e-05,73.48333333333333,0.13052032621609472,0.46999999999999886,-0.00016381948888332686
S100,7443.0,7472.984375,N2,0.06654687500000002,28.477695197347185,-249.54,115.34,364.88,3.04,88.91586777597213,875.0,862.2151692708334,0.4969426928032603,0.2929269646127209,0.1428261375083551,63.18832920890672,0.41789367087433504,64.10148204214939,0.09166666666666666,43,0.10640178333333333,0.0012279063562512526,1.256995132648422e-06,32.17133333333333,0.015434449203721466,-1.6527782261227057e-05,72.60133333333333,0.5643092138968566,1.9500000000000028,-0.0009503474800204745
S100,7473.0,7502.984375,N2,-0.12115104166666671,12.40287607263008,-32.71,24.1,56.81,2.745,52.103973749295015,828.125,817.6025390625,0.2779493827570048,0.4992083576774331,0.07210109366946756,63.51298384674117,0.23683584383476128,64.20280367709809,0.0010416666666666667,1,0.10822661666666665,0.001121427885802541,6.743118148632303e-07,32.143666666666654,0.012775845264489282,-1.5173615227215318e-05,70.34733333333334,0.3160267217956246,1.1700000000000017,4.277778938199463e-05
S100,7503.0,7532.984375,N2,0.15954166666666666,13.958254558173236,-36.16,48.37,84.53,2.5549999999999997,41.54937049168507,843.75,839.2333984375,0.17116012950028855,0.4935246936718454,0.17677362623014653,63.529682532871156,0.18045019424485914,63.631753079732135,0.0,0,0.11055364999999999,0.001226278283058132,1.2821123269618927e-06,32.11866666666667,0.015216949614017875,-1.2430558927560516e-05,71.56099999999999,0.3301550140969134,1.0200000000000102,0.0004850348537963464
S100,7533.0,7562.984375,N2,0.01459375000000005,12.869038864394431,-34.6,30.2,64.8,2.545,41.143785095740725,843.75,839.3798828125,0.1462753717308556,0.4859472690157738,0.17677362623014656,63.53266079302723,0.15802180694988233,63.631753079732135,0.0,0,0.11297651666666668,0.0011199564722444426,9.212754235230628e-07,32.09666666666668,0.014907119849997857,-1.5555559775270603e-05,72.07400000000001,0.1922082204277422,0.5999999999999943,-3.979167746085047e-05
S100,7563.0,7592.984375,N2,-0.21876562500000005,11.640745617373558,-46.25,28.89,75.14,1.245,32.26289184915664,828.125,832.91015625,0.11557806855349138,0.3817392125376811,0.3342289400620479,63.46468720923814,0.20950918889056114,63.631753079732135,0.0,0,0.11445986666666667,0.0011565855274134388,1.2450732544144019e-06,32.08133333333334,0.014313940369057216,-3.2638897742757204e-06,71.31099999999999,0.3080622231519682,1.1799999999999926,-0.0005205209745336842
S100,7593.0,7622.984375,N2,0.09838020833333314,12.28614135550804,-41.03,29.62,70.65,1.525,64.12855428388791,812.5,817.5455729166666,0.07198059875565237,0.2200827456448041,0.3580894882528978,63.445724904306324,0.207644809909293,63.631753079732135,0.0,0,0.116413225,0.001341444473086754,1.3240895518906122e-06,32.08133333333334,0.014313940369057216,4.791667966489948e-06,70.73333333333333,0.08223273206103515,0.3299999999999983,0.00011152780803162961
S100,7623.0,7652.984375,N2,0.07556249999999999,12.866945979923146,-30.35,31.79,62.14,2.045,65.22225618262259,796.875,814.9088541666666,0.03225804701500421,0.14963787306546278,0.35398126274564307,63.44857831065268,0.20102327470375958,63.631753079732135,0.0,0,0.11846269166666666,0.0011454866709237127,5.283532249222064e-07,32.074,0.012000000000001875,9.166669153286251e-06,70.69033333333333,0.3906958180249982,1.3399999999999892,0.0002203125597636058
S100,7653.0,7682.984375,N2,-0.12114062500000007,12.915634945395622,-36.99,30.33,67.32,1.6749999999999998,73.9004163565727,843.75,822.3551432291666,0.032258047015004204,0.17950549357115012,0.42096609910683097,63.40287981386481,0.23681492481184546,63.631753079732135,0.0,0,0.12001014166666665,0.0013080519567651844,1.133913719052117e-06,32.076666666666675,0.012995725793080651,1.12500030517604e-05,71.41566666666667,0.15274561277569287,0.5,-0.00026927090637773995
S100,7683.0,7712.984375,N2,0.108109375,11.967296191884243,-30.46,27.86,58.32,1.68,79.33561092000417,750.0,764.3961588541666,0.03225804701500421,0.15612494995995993,0.4416654382844553,63.38213982649318,0.25036842492264316,63.631753079732135,0.0,0,0.12214470833333335,0.0011568251120763892,7.778289870412827e-07,32.08333333333334,0.012995725793079678,-8.33333559388919e-07,71.58266666666665,0.20225286703090892,0.7000000000000028,-7.402779785910362e-05
S100,7713.0,7742.984375,N2,-0.06283333333333334,12.868475446048594,-34.36,28.42,62.78,1.975,110.02885261872486,843.75,880.4524739583334,0.0,0.08507936450096987,0.42096609910683097,63.401058864136665,0.236082414158219,63.631753079732135,0.0,0,0.12371392499999999,0.0011031464632472862,6.974891214976983e-07,32.08200000000001,0.014236104336042575,-5.672547305221097e-19,71.90233333333335,0.6477894891260756,1.5999999999999943,0.0010926044630545967
S100,7743.0,7772.984375,N2,0.1593072916666666,12.602374552595442,-32.57,49.37,81.94,2.3,87.55794566791063,828.125,822.8597005208334,0.06441510347391796,0.04559597630883185,0.34977516339865466,63.44623652320249,0.2017325998558154,63.631753079732135,0.0,0,0.12494145,0.0010568009261445574,6.170014694556933e-07,32.085333333333345,0.012310790208413424,1.0416669492373939e-06,72.53633333333333,0.07463168823555279,0.23000000000000398,-2.4895840086761042e-05
S100,7773.0,7802.984375,N2,-0.12759374999999992,10.718801377017904,-29.42,36.29,65.71000000000001,1.35,67.12129421174966,781.25,788.1103515625,0.0,0.05581428468591172,0.38436088501635485,63.428696632443085,0.21512053094686404,63.52952069707436,0.0,0,0.1270864,0.0010516802223109482,7.650705200386632e-07,32.09333333333335,0.012736648783027736,2.5694451414509308e-06,72.32133333333333,0.29700430225091895,0.8299999999999983,-0.0002377083978158628
S100,7803.0,7832.984375,N2,0.04596875000000004,10.929929341751945,-38.9,23.42,62.32,1.4049999999999998,58.35127554571383,796.875,819.5149739583334,0.0,0.0,0.4491009054365053,63.37224684006074,0.2520689900477807,63.52952069707436,0.0,0,0.12819648333333333,0.0012701122587087462,1.2344768973732943e-06,32.08800000000001,0.013012814197295856,-1.7361115820614443e-06,73.36666666666666,0.3721857361885626,1.25,0.0006658335139522336
S100,7833.0,7862.984375,N2,0.03768229166666669,11.07591157803628,-23.44,24.79,48.230000000000004,0.845,109.71012877093682,718.75,746.1995442708334,0.0,0.04559597630883184,0.4801213315981238,63.32744280881533,0.26923464900311034,63.52952069707436,0.0,0,0.13009636666666666,0.0013499529308666893,1.6667795320040003e-06,32.08933333333334,0.014126413400277843,-1.5972226554971173e-06,72.96966666666667,0.46862553162294635,1.769999999999996,-0.0007960766048384894
S100,7863.0,7892.984375,N2,-0.056463541666666624,12.199257437430873,-30.42,28.28,58.7,1.6949999999999998,39.72179139547565,828.125,832.0719401041666,0.0,0.0,0.48439068074976654,63.31845801163972,0.27187624920612263,63.52952069707436,0.0,0,0.13195334166666667,0.0011627002228708273,7.305407797690894e-07,32.09866666666668,0.011175369742825248,-2.013889435191676e-06,71.73066666666666,0.09014556130072207,0.4000000000000057,-0.00014319448328843358
S100,7893.0,7922.984375,N2,0.10077083333333328,14.067230894202881,-83.37,32.04,115.41,3.245,35.13279921561799,843.75,842.8792317708334,0.0,0.032258047015004204,0.4596087840489997,63.35949078619924,0.2580580946192802,63.631753079732135,0.0010416666666666667,1,0.13343685833333332,0.0011091520732510996,8.573146856864892e-07,32.10266666666668,0.014126413400277262,8.680557910307196e-06,71.59033333333333,0.5553226289484536,1.5799999999999983,-0.0008222571674959761
S100,7923.0,7952.984375,N2,-0.04376562499999997,11.862006419186358,-28.25,29.18,57.43,2.335,29.72291206339685,828.125,829.3212890625,0.0,0.0,0.47696960070847283,63.333074541101965,0.2677109844996209,63.52952069707436,0.0,0,0.13463245,0.0010867548470101282,9.179390510902398e-07,32.100666666666676,0.012364824660659628,6.944446328244939e-06,70.508,0.060243948520437886,0.20999999999999375,-7.847224350917889e-05
S100,7953.0,7982.984375,N2,0.11645833333333337,12.190998765240575,-27.46,25.58,53.04,2.6500000000000004,57.69930001077951,828.125,832.0963541666666,0.0,0.0,0.4795107460271934,63.32839725167405,0.26913726515570635,63.52952069707436,0.0,0,0.13656444166666667,0.0011580940361633984,9.890803464302187e-07,32.10866666666667,0.014544949486180772,-2.9166674578625976e-06,71.045,0.563564548210761,1.7000000000000028,0.0009598266492585295
S100,7983.0,8012.984375,N2,-0.0973333333333333,11.27469247424908,-25.59,28.94,54.53,1.65,43.000007588733325,843.75,830.2001953125,0.0,0.0,0.4975973086716026,63.2763624067885,0.2792887957449866,63.52952069707436,0.0,0,0.13778103333333333,0.001298209805420102,1.1358032594952452e-06,32.10266666666668,0.014126413400277264,5.486112599314442e-06,71.81566666666666,0.41921898281871245,1.1600000000000108,-0.0006332293384411167
S100,8013.0,8042.984375,N2,-0.18443749999999998,10.895426615875447,-28.76,29.37,58.13,1.3250000000000002,64.23920397715803,796.875,808.5693359375,0.0,0.032258047015004204,0.4907300400650262,63.30277865188579,0.2755418002508712,63.631753079732135,0.0010416666666666667,1,0.13914705000000005,0.0011190044224666884,4.2725575826165403e-07,32.11466666666667,0.012310790208413426,-4.513890113360432e-06,71.154,0.15391772694094422,0.519999999999996,0.0002556945138060231
S100,8043.0,8072.984375,N2,0.08906770833333338,12.607101277471184,-33.27,32.07,65.34,2.275,48.758950974003525,828.125,824.8942057291666,0.0,0.0,0.48902894142939585,63.307349449248434,0.2744795877230115,63.52952069707436,0.0,0,0.14052405000000004,0.001074098108880185,5.142905040935599e-07,32.11333333333334,0.013743685418725672,5.902779379009321e-06,71.94566666666667,0.5140277770272295,1.3699999999999903,0.0008350349487399488
S100,8073.0,8102.984375,N2,-0.006739583333333332,11.662789662127002,-29.76,29.02,58.78,0.91,36.94715143785575,843.75,841.6259765625,0.0,0.0,0.49834687655788523,63.226081545438426,0.27970950925898813,63.52952069707436,0.459375,157,0.14171964166666667,0.0011295118473322316,9.051324069912071e-07,32.11866666666667,0.012310790208413747,2.013889435191775e-06,72.62066666666666,0.14505018288701135,0.4200000000000017,-0.00025500006917319497
S100,8103.0,8132.984375,N2,0.08902083333333337,12.151649792808628,-29.5,32.37,61.87,0.6799999999999999,92.73914296691471,875.0,851.3020833333334,0.0,0.0,0.4988876515698588,63.23017417368785,0.28001303260855437,63.52952069707436,0.4666666666666667,165,0.14324591666666667,0.0012260703254934262,1.1292042993718256e-06,32.11800000000001,0.015143755588800845,4.166667796947825e-06,73.17933333333333,0.36944041768899966,1.4000000000000057,0.0004993751354641758
S100,8133.0,8162.984375,N1,-0.161796875,12.726695665116308,-31.92,27.98,59.900000000000006,1.97,66.6601475866117,828.125,824.6256510416666,0.0,0.0,0.4995657836784082,63.26057655496929,0.28039365102560004,63.52952069707436,0.0,0,0.14435585833333328,0.0010889837257418325,4.6995303546903226e-07,32.12533333333333,0.013349989596334192,3.472223164129499e-07,73.81566666666666,0.04038839217178692,0.14000000000000057,5.461807037165248e-05
S100,8163.0,8192.984375,N2,-0.09269791666666663,12.234635556501562,-30.46,27.17,57.63,2.13,75.73007601437314,812.5,800.5940755208334,0.0,0.0,0.49851232675888324,63.22725086779541,0.27980237227610516,63.52952069707436,0.46145833333333336,173,0.14546561666666666,0.0010148179408423772,4.5172060864817e-07,32.126666666666665,0.013743685418725443,-7.013890791528817e-06,72.89500000000001,0.43713270296329904,1.5799999999999983,-0.00065947934556189
S100,8193.0,8222.984375,N2,0.19683333333333336,11.567946868994898,-28.81,28.03,56.84,1.22,38.272581611174346,828.125,826.513671875,0.0,0.0,0.49738792532980625,63.220234933653536,0.27917127416607074,63.52952069707436,0.44895833333333335,174,0.14683198333333333,0.001268049716318553,4.50637275020963e-07,32.11733333333334,0.010934146311238933,-7.01389079152931e-06,71.94233333333335,0.3210678363766063,1.1300000000000097,-0.00048440985362680524
S100,8223.0,8252.984375,N2,-0.05414062500000008,12.420223821747657,-31.64,29.62,61.260000000000005,0.985,74.22748536575438,812.5,809.6516927083334,0.0,0.0,0.49716972391226727,63.219065611296564,0.2790488032240614,63.52952069707436,0.446875,152,0.14830510833333335,0.0012691211447023267,1.385760575564387e-06,32.12133333333334,0.012310790208413696,4.652779039925843e-06,72.17066666666666,0.6249476422513778,1.9000000000000057,0.0010817364045508915
S100,8253.0,8282.984375,N2,0.12408333333333331,12.205344111858906,-30.74,28.17,58.91,1.665,83.47527455718912,796.875,812.9313151041666,0.0,0.0,0.49932137105998403,63.234266801937274,0.2802564683988555,63.52952069707436,0.4739583333333333,170,0.14959656666666665,0.001079047625866843,4.079840516449756e-07,32.13,0.010327955589886225,4.305556723512203e-06,73.35400000000001,0.4307868769279465,1.5699999999999932,0.0006564585114091035
S100,8283.0,8312.984375,N2,-0.14068229166666665,13.022548345845935,-38.92,28.46,67.38,2.2199999999999998,31.381288881811095,781.25,787.7604166666666,0.0,0.0,0.49999023427963085,63.250637314934984,0.28063188442277237,63.52952069707436,0.0,0,0.15063171666666667,0.0011126044384186528,5.799819281634991e-07,32.128,0.007916228058025858,-1.875000508626116e-06,74.50600000000001,0.24099239268768025,0.7700000000000102,2.9027785652068117e-05
S100,8313.0,8342.984375,N2,-1.0539739583333334,87.10652848780761,-443.37,467.75,911.12,0.855,29.47423415148496,796.875,789.0055338541666,8.241464900525708,2.2333294465140305,9.431937976527175,63.29721173926,1.1472188262427245,73.92563831310488,0.08958333333333333,35,0.13575309166666666,0.08015410229634704,-5.696653780559292e-05,32.13066666666666,0.017499206331208477,-5.625001525880346e-06,75.95866666666667,0.8985905012233802,3.1699999999999875,0.0015480559754926125
S100,8343.0,8372.984375,N2,1.0574270833333335,41.96676822380934,-256.83,304.14,560.97,2.09,28.811513174520563,796.875,807.0475260416666,0.49434299833212964,0.36795317627458457,0.20283365858642777,62.97565602124957,0.46444270538693083,63.72597586541927,0.37395833333333334,186,0.12173382499999999,0.07911645126580422,0.0001239069717629589,31.960333333333335,0.05406683107249925,-9.371530319967982e-05,78.53400000000002,0.2851619422947831,1.269999999999996,-0.0003423612039825293
S100,8373.0,8402.984375,N2,0.1553697916666667,24.254648432669992,-53.5,99.98,153.48000000000002,2.285,39.47370556827064,828.125,817.2444661458334,0.2943625410196677,0.19741988090108858,0.47920176501889294,63.2140554421756,0.32574717223089666,63.53739056650029,0.0,0,0.20141494166666662,0.0011516219453147538,-4.472876647373195e-07,31.840666666666667,0.028627880738112732,-4.7222235032075e-05,77.87700000000001,0.5707956435246043,2.25,-0.0005569098732936943
S100,8403.0,8432.984375,N2,-0.1950885416666666,21.485183913680153,-60.28,38.84,99.12,2.09,47.69573903324832,812.5,816.5120442708334,0.20453835214941965,0.2200827456448041,0.3081573258905263,63.170618840885226,0.22126212116920393,63.53739056650029,0.09895833333333333,80,0.20172450833333333,0.001169364841811088,4.353189114905875e-07,31.78066666666667,0.01842703328144661,-2.0555561131607937e-05,75.18833333333333,0.2794409100726338,1.0499999999999972,-0.0003657292658770781
S100,8433.0,8462.984375,N1,-0.13941666666666686,22.866574536075333,-73.75,56.51,130.26,2.915,48.395117125053865,812.5,793.4163411458334,0.15925921720229852,0.2530285309999645,0.23632521950693286,63.166965251898745,0.1741671574957888,63.53739056650029,0.058333333333333334,52,0.203357725,0.001264367984162443,1.3812579701763142e-06,31.752666666666663,0.013399834161494236,1.5277781922141048e-06,74.38466666666666,0.33810977835937084,0.9500000000000028,-0.00044222234218271075
S100,8463.0,8492.984375,N2,0.15078125000000006,20.024098310277257,-73.35,42.87,116.22,2.255,54.491361051951735,812.5,801.0091145833334,0.1428261375083551,0.318518434404597,0.17950549357115012,63.15412563447485,0.15863588801642475,63.53739056650029,0.03333333333333333,28,0.20542827500000005,0.0012622555602472146,1.0279436382225613e-06,31.737333333333336,0.015040685563570985,-1.6180559944813008e-05,74.90166666666667,0.17527280323985142,0.6500000000000057,0.00027954868694354536
S100,8493.0,8522.984375,N2,-0.3513958333333333,19.247597697223135,-65.41,55.75,121.16,1.3250000000000002,70.93439886155096,828.125,812.6546223958334,0.12801909579781012,0.20912350152216008,0.09090593428863095,63.16159396146161,0.13120561772246508,63.53739056650029,0.008333333333333333,7,0.2071464916666667,0.0011777591858824793,3.440567339563629e-07,31.730666666666668,0.010934146311237585,1.8750005086264014e-06,75.02199999999999,0.16926113946601465,0.6000000000000085,-0.00028861118940190934
S100,8523.0,8552.984375,W,0.5459895833333334,24.488758763799325,-96.62,61.89,158.51,4.01,66.76264797510856,875.0,849.8616536458334,0.09636964965693294,0.11987768650679835,0.0,63.17102359451318,0.09075436513947359,63.182275995725256,0.0,0,0.20877965833333334,0.0013884838823685368,1.1467153718303379e-06,31.743999999999996,0.016451950239003737,1.673611565107268e-05,74.07933333333334,0.21293087036772135,0.75,-0.000253402846517699
S100,8553.0,8582.984375,N2,0.14686979166666655,23.579952306455425,-77.5,69.08,146.57999999999998,3.4000000000000004,44.26442941461234,796.875,808.0159505208334,0.07198059875565237,0.11557806855349138,0.05581428468591172,63.17396684336204,0.07156540454027957,63.182275995725256,0.0,0,0.2111492583333333,0.0012838172215170998,1.0441975488817125e-06,31.76533333333333,0.012310790208412664,1.2986114633819881e-05,73.47833333333334,0.2524821225794451,1.0,-0.00024586812225155225
S100,8583.0,8612.984375,N2,-0.24028125000000014,19.20460400323054,-70.33,52.8,123.13,1.58,27.774004017601648,812.5,812.7522786458334,0.04559597630883185,0.11557806855349138,0.06441510347391793,63.176476156333095,0.05149888292581754,63.182275995725256,0.0,0,0.21270736666666662,0.0012054429402598163,7.612289391354569e-07,31.79466666666667,0.015216949614017447,1.4791670679163821e-05,71.11200000000001,0.9260467950739129,2.75,-0.0015707643149859784
S100,8613.0,8642.984375,N2,0.21645312500000002,33.91897780884267,-122.22,177.1,299.32,2.395,77.90560965188361,812.5,813.3138020833334,0.10206207261596575,0.26199521571119494,0.4460462400512854,63.11325963656397,0.17320425610369808,64.29618962271404,0.00625,5,0.21447913333333332,0.0012582658101088567,8.041985688472702e-07,31.81933333333333,0.01436043948569221,8.472224520460645e-06,70.02833333333332,0.23968150162710247,0.9699999999999989,-0.00013815975970045448
S100,8643.0,8672.984375,N2,-0.20995312500000016,20.199454549873025,-54.35,58.73,113.08,2.045,70.7554388902465,843.75,850.7975260416666,0.0,0.03225804701500421,0.1496378730654628,62.83378087343081,0.04939112286029962,63.03967004989794,0.0010416666666666667,1,0.21510890000000002,0.0012357556015113492,2.489939911550547e-07,31.862000000000005,0.01758787461103083,1.9722227572219182e-05,73.89266666666666,1.2862139099785161,4.069999999999993,0.0019885422060932625
S100,8673.0,8702.984375,N2,-0.26384895833333327,17.044232487000887,-48.8,40.06,88.86,2.985,37.09291595061215,828.125,823.4130859375,0.0,0.22634628092568448,0.48101883878273305,62.64370304122009,0.16076157324791499,63.03967004989794,0.36354166666666665,146,0.2163576416666667,0.0013243306724268517,4.911253502401676e-07,31.898666666666667,0.01687865186822919,1.812500491672187e-05,74.93766666666667,0.21654381132284187,0.6800000000000068,0.00016114587704694916
S100,8703.0,8732.984375,N2,0.34925520833333334,16.7745379847415,-43.47,38.53,82.0,3.47,45.893008945928614,812.5,818.701171875,0.07880950133074056,0.2494438257849294,0.17399263633843817,62.54333081699247,0.10458003111386592,63.4428877022476,0.10104166666666667,84,0.21812918333333337,0.0012350056341526828,8.812884335092285e-07,31.938000000000002,0.01973153144926457,2.3888895369165985e-05,72.92433333333334,0.5265781571196786,1.8700000000000045,-0.0007263543637029005
S100,8733.0,8762.984375,N2,-0.12140625000000008,15.197412989194168,-37.57,40.98,78.55,0.7849999999999999,54.17354980164491,812.5,807.3079427083334,0.09090593428863095,0.1978371550810301,0.4007791348493026,62.595190315812985,0.15963289287494525,63.76519426771944,0.20625,95,0.21914310833333334,0.0011142780906326195,2.4016174049526187e-07,31.96,0.013416407864998451,1.701389350420252e-05,73.96566666666666,0.9368375289000516,3.030000000000001,0.0015873962639421284
S100,8763.0,8792.984375,N2,-0.02778645833333333,18.430507997560728,-42.93,31.43,74.36,4.175,36.92956023883298,828.125,829.4921875,0.13928372696486202,0.41620286686769575,0.032258047015004204,62.57655621364719,0.1500969917148336,63.63961030678928,0.019791666666666666,18,0.21993305833333332,0.0013248828079987117,1.4233083288054251e-06,31.993000000000002,0.013453624047074352,1.1631947599813078e-05,76.74900000000001,0.20889151889597318,0.8900000000000006,-3.2291675426336833e-06
S100,8793.0,8822.984375,N2,0.014031249999999999,16.751154733177554,-40.47,29.31,69.78,4.035,17.712872989172926,812.5,821.0774739583334,0.19249988726547926,0.45594905409547193,0.05581428468591172,62.60762474449583,0.2064352660300247,63.63961030678928,0.03854166666666667,35,0.2212247083333333,0.0011805482299609357,6.035264223975773e-07,32.02033333333333,0.019576062480034725,1.9479171950730162e-05,75.58,0.9639502061828713,2.980000000000004,-0.0016040282128982782
S100,8823.0,8852.984375,N2,-0.0013385416666666335,16.82492101362013,-39.09,34.4,73.49000000000001,3.105,22.206437114043318,843.75,844.5393880208334,0.19249988726547926,0.4818944098266986,0.16862135013758553,62.6145087600865,0.2125270172295218,63.96092557178953,0.03854166666666667,35,0.22254828333333332,0.0010324915510819264,3.2000095486137123e-07,32.04933333333334,0.013148721948876963,7.5694464977879e-06,72.26533333333333,0.3547274384024378,1.3799999999999955,-0.000520833474618455
S100,8853.0,8882.984375,N2,0.02687499999999995,15.705467752273675,-38.18,37.58,75.75999999999999,2.85,23.556195392355857,828.125,831.9010416666666,0.2732186624299299,0.4766407608782064,0.2530285309999645,62.63759521432053,0.2839438329390713,63.63961030678928,0.08125,71,0.22318852499999997,0.0011747664658880114,2.548804944879822e-07,32.06266666666667,0.014126413400279722,7.152779718093958e-06,71.80166666666668,0.13261682480825104,0.39000000000000057,-0.00023565978614903144
S100,8883.0,8912.984375,N2,-0.015119791666666608,14.782942460760307,-34.37,36.87,71.24,3.335,24.04748665693603,843.75,842.6106770833334,0.25124473114984036,0.4907300400650262,0.2565462379810357,62.63538235755782,0.26910702183498303,63.63961030678928,0.06770833333333333,59,0.224874675,0.001054366880822329,4.44355806303117e-07,32.08666666666668,0.016397831834999384,1.4236114972905888e-05,71.91633333333334,0.16531753956821704,0.5400000000000063,0.00027795146428804884
S100,8913.0,8942.984375,N2,0.035979166666666715,16.2030720685276,-42.41,39.47,81.88,3.0300000000000002,38.61424854546084,843.75,837.4430338541666,0.2810396589995006,0.4816049827140496,0.3172537731804339,62.631767349484875,0.2997393534407114,63.63961030678928,0.08645833333333333,74,0.2266145916666667,0.0012008983824331446,8.456428075202892e-07,32.11466666666667,0.016069294390925075,1.6041671018248003e-05,71.62033333333332,0.139797075156179,0.5300000000000011,-0.0002408681208952162
S100,8943.0,8972.984375,N2,0.012369791666666725,14.932752343796865,-36.69,40.22,76.91,2.5700000000000003,17.14564148805994,812.5,815.2180989583334,0.3,0.4935246936718454,0.3529390488770294,62.645090721242426,0.3160699194380776,63.63961030678928,0.1,80,0.2278422083333333,0.0010818263330731697,1.6987222490023423e-07,32.14,0.013165611772086127,1.6458337797941106e-05,71.71533333333333,0.22410910041515164,0.8199999999999932,0.0003913195505966641
S100,8973.0,9002.984375,N2,-0.046020833333333386,14.47304452463496,-36.99,36.29,73.28,2.745,21.639173377140274,828.125,830.0618489583334,0.3259334884434075,0.4931815908944922,0.36110844016106236,62.66141125846364,0.3394811202711945,63.63961030678928,0.12083333333333333,102,0.22876013333333328,0.0010879276472061704,5.1973104376384965e-08,32.15699999999999,0.010049875621120518,1.1215280820116682e-05,72.74833333333332,0.196062631716386,0.7199999999999989,0.00034204870389775894
S100,9003.0,9032.984375,N2,0.08050520833333345,14.37280347366794,-37.1,32.73,69.83,3.26,21.86315306525462,828.125,834.47265625,0.32714138285304106,0.4955356249106168,0.414808356017839,62.64469830194882,0.3492606349752365,63.63961030678928,0.121875,97,0.23060634999999993,0.001268312669454977,1.1850428561856744e-06,32.170333333333325,0.013034143197346075,4.9652791246965345e-06,72.63466666666666,0.19345513404634465,0.6800000000000068,-0.0003359028688972636
S100,9033.0,9062.984375,N3,-0.09354166666666668,14.739768731166167,-35.03,41.12,76.15,3.175,21.391449922207368,812.5,817.0572916666666,0.36985914877228,0.49525088339143836,0.4359782562589052,62.672335003940844,0.37539999175734595,63.63961030678928,0.16354166666666667,129,0.23143879166666662,0.0011877735256621517,3.5517175433261664e-07,32.19866666666666,0.019447936194420052,1.4444448362752659e-05,72.23700000000001,0.1126987133910595,0.38000000000000966,0.00015371531947572852
S100,9063.0,9092.984375,N2,0.16367708333333336,13.053230607461057,-31.1,34.75,65.85,3.3049999999999997,36.19575036608306,828.125,830.6640625,0.36890886408434265,0.49010942478582153,0.4564164460470528,62.652574226422594,0.3949486919529208,63.63961030678928,0.1625,126,0.23217528333333332,0.0011452364616338245,3.549779608772686e-07,32.219,0.013253930234712642,8.506946752100141e-06,72.64900000000002,0.2021443378710683,0.8199999999999932,-0.00013364586958709547
S100,9093.0,9122.984375,N2,-0.11669270833333334,13.942629166417593,-33.52,29.77,63.290000000000006,3.455,17.625051896640375,828.125,834.0169270833334,0.36985914877228,0.494183837180614,0.46599188565896726,62.65103612999364,0.38698213339249465,63.63961030678928,0.16354166666666667,122,0.23343490833333333,0.001231871942721275,9.659939686398572e-07,32.245333333333335,0.017650936393165704,2.062500559489194e-05,71.79500000000002,0.19870832896484292,0.6700000000000017,-0.0002888542450233954
S100,9123.0,9152.984375,N2,-0.023802083333333297,14.739638794562177,-37.48,33.31,70.78999999999999,3.085,30.3895578684641,828.125,836.3118489583334,0.4090767042988393,0.4984306970103488,0.49152540343528756,62.67586454438313,0.42885927855703554,63.63961030678928,0.2125,153,0.23483324166666672,0.0012111030990783586,5.309079131152069e-07,32.26533333333333,0.011175369742827507,-2.0833338984687214e-07,71.09866666666667,0.15502114551104235,0.7000000000000028,5.347223672748561e-06
S100,9153.0,9182.984375,N2,0.008864583333333427,15.279558463379399,-35.86,36.94,72.8,3.44,16.44456214834022,828.125,832.9264322916666,0.3886352099191334,0.4969426928032603,0.487418752132656,62.65370971982543,0.4160228485545101,63.63961030678928,0.18541666666666667,142,0.23603922500000002,0.0011735982167569061,6.367688359290305e-08,32.29333333333334,0.017191729277636264,2.173611700741013e-05,71.85866666666666,0.1067624569885048,0.37999999999999545,0.00016784726775370898
S100,9183.0,9212.984375,N2,-0.033375000000000064,13.945828844175654,-35.62,42.09,77.71000000000001,2.27,51.344013667730785,828.125,842.236328125,0.41962362227953753,0.4973879253298062,0.4990224819584785,62.66931613566732,0.43606011182134136,63.63961030678928,0.228125,150,0.2370850166666667,0.0012238530479822965,1.2497920056944472e-06,32.31333333333334,0.010434983894998001,9.027780226718591e-07,72.29833333333333,0.18299514261920227,0.5499999999999972,0.0003276042555350084
S100,9213.0,9242.984375,N2,-0.18293750000000003,13.889279645806944,-40.02,32.84,72.86000000000001,2.375,18.65864858538468,812.5,820.21484375,0.436561493377508,0.4919093680637612,0.49914858064063006,62.669045938365606,0.44141572433271886,63.63961030678928,0.25625,173,0.23868603333333335,0.0011785906621422462,3.132856752619572e-07,32.324,0.010198039027184285,1.8055560453441135e-06,72.53233333333333,0.07610008030364976,0.29999999999999716,7.072918585318559e-05
S100,9243.0,9272.984375,N2,0.28057812500000007,12.900399219805363,-29.75,28.7,58.45,2.58,18.8213245708616,812.5,815.4215494791666,0.4459878528957438,0.486198404860494,0.49010942478582153,62.65830885404334,0.4619684888033689,63.63961030678928,0.27395833333333336,165,0.2401269833333333,0.0012481053440003501,1.002805827584049e-06,32.33533333333333,0.011175369742827042,5.069445819621784e-06,73.14166666666667,0.12124584758067293,0.4300000000000068,0.000187534773094286
S100,9273.0,9302.984375,N2,0.132125,12.496325420940417,-31.53,33.12,64.65,2.495,25.513326098661423,828.125,827.1240234375,0.480422945535725,0.4753002979842207,0.45916118417779567,62.70134624428787,0.48254100405471767,63.63961030678928,0.190625,144,0.24140764999999995,0.0012696805021342999,-8.959268923412815e-07,32.350666666666676,0.016110727964790773,1.2430558927559578e-05,73.33033333333333,0.16185350028824083,0.5699999999999932,-0.00019232644106077245
S100,9303.0,9332.984375,N2,-0.22246874999999994,11.926929349037836,-30.14,36.4,66.53999999999999,1.815,21.331724143431796,796.875,794.7835286458334,0.48858053327982676,0.4216318743880733,0.46137132362543826,62.710570458931564,0.4676833494796887,63.63961030678928,0.14895833333333333,112,0.24261359999999996,0.0012224078861002156,8.557172460170481e-07,32.376333333333335,0.011685698761972792,5.208334746196101e-07,73.151,0.2585259496968665,0.730000000000004,0.0003994792750323556
S100,9333.0,9362.984375,N2,0.09280208333333334,12.993070347079719,-38.82,42.08,80.9,2.09,14.828159555105275,781.25,790.3401692708334,0.4377181995556299,0.4236075534914362,0.49682586235017995,62.6626170876524,0.417785502684826,63.63961030678928,0.25833333333333336,168,0.24405455,0.0011792855665613744,8.523322624599186e-07,32.392666666666656,0.012364824660660214,1.1805558758016963e-05,73.212,0.16036209028321008,0.5300000000000011,0.00011229169712773867
S100,9363.0,9392.984375,N2,-0.1295416666666666,12.20065907536408,-29.1,35.57,64.67,2.625,30.88907885912317,812.5,823.8850911458334,0.483027920748089,0.45161265821005897,0.4732137007708274,62.70975776113209,0.46078542381511833,63.63961030678928,0.15625,129,0.24522877500000004,0.0013427850067583393,1.2665101091878514e-06,32.407999999999994,0.013999999999999447,8.125002204047226e-06,73.18233333333333,0.3804355690813124,1.0300000000000011,-0.0006351737834130263
S100,9393.0,9422.984375,N2,0.03513020833333328,11.838344196566474,-30.7,33.33,64.03,1.245,28.375242317199465,781.25,783.5611979166666,0.4609348516873073,0.4348019484489462,0.47426844250440653,62.644068656340366,0.4528103131708713,63.63961030678928,0.30625,167,0.24690455833333338,0.0012533058072941464,9.235703460206044e-07,32.41866666666666,0.01431394036905674,1.8750005086266098e-06,73.39533333333334,0.8397647818817414,2.25,0.0013594448132174522
S100,9423.0,9452.984375,N2,0.25283333333333335,12.52182676425005,-30.71,34.99,65.7,2.87,30.37820932347193,828.125,818.9534505208334,0.4643497170476387,0.4573426793870094,0.46308966726818207,62.65137407481792,0.4542776726835548,63.63961030678928,0.3145833333333333,180,0.24824920000000003,0.0010670653963089634,7.976781677729377e-08,32.43333333333333,0.012736648783029842,9.236113616568254e-06,74.81866666666666,0.16378305433984605,0.7000000000000028,0.00010402780599713009
S100,9453.0,9482.984375,N2,-0.3234166666666668,11.888476120690248,-27.88,29.52,57.4,1.975,80.97552006699645,828.125,859.1552734375,0.4931815908944921,0.47696960070847283,0.37727176461405115,62.714431913381254,0.4743730408316194,63.63961030678928,0.17604166666666668,132,0.24956186666666666,0.0009449218480323611,1.2563762088694162e-07,32.45,0.017126976771553698,2.0416672205044082e-05,74.20233333333333,1.0910413476226377,3.299999999999997,-0.0018411463327762405
S100,9483.0,9512.984375,N2,0.042374999999999975,12.142644806673777,-32.46,33.59,66.05000000000001,1.895,28.807379917930795,812.5,811.81640625,0.49228421668788036,0.4465142774872938,0.4348019484489462,62.71993921434814,0.4675467340010257,63.63961030678928,0.15833333333333333,119,0.25139795,0.0013145429234148272,1.1987138668386134e-06,32.458,0.015999999999999424,1.1805558758017753e-05,71.93033333333332,0.2114786566588282,0.5700000000000074,0.00029697924722744425
S100,9513.0,9542.984375,N2,0.2706718749999999,12.890842765499626,-33.62,38.8,72.41999999999999,2.26,20.000028543981742,812.5,814.4938151041666,0.49418383718061387,0.46719533856300405,0.35398126274564307,62.70677434467179,0.4884427155884393,63.63961030678928,0.18229166666666666,136,0.2527108833333333,0.001190035785059525,9.225462572011433e-07,32.46733333333334,0.00853749898324273,4.166667796947185e-06,72.48266666666665,0.4077984251509016,1.3299999999999983,0.0006143751666599296
S100,9543.0,9572.984375,N2,-0.18537500000000004,11.759273169901915,-28.28,32.76,61.04,1.23,24.31083727775762,828.125,828.4912109375,0.4975973086716026,0.4742684425044066,0.29292696461272083,62.71987470530027,0.4772144361829769,63.63961030678928,0.16770833333333332,133,0.2544931,0.001276308168116149,1.1677468445493866e-06,32.48533333333334,0.009568466729606014,4.1666677969478063e-07,73.31866666666666,0.27079799769487933,0.7000000000000028,-0.0004450695651772908
S100,9573.0,9602.984375,N2,-0.04392708333333341,13.957136674882488,-33.89,40.72,74.61,1.74,36.08027215266911,812.5,820.8577473958334,0.4993746088859545,0.47391941232133544,0.2929269646127209,62.74196767792624,0.48269234721410975,63.63961030678928,0.18229166666666666,135,0.25588050833333337,0.0011945349652747112,2.151200670356052e-07,32.49000000000001,0.007745966692415128,-5.555557062597605e-06,72.69033333333333,0.09101220919317643,0.3500000000000085,-0.00012496531167678916
S100,9603.0,9632.984375,N2,-0.24471354166666667,11.454251626998959,-30.15,31.64,61.79,1.5750000000000002,37.06758968607106,812.5,822.8434244791666,0.4919093680637611,0.42425895361467886,0.45734267938700945,62.724055736436824,0.4644875014831215,63.63961030678928,0.18645833333333334,138,0.2581328333333333,0.0015503580787102759,2.0061889122691286e-06,32.506,0.01356465996625077,5.972223842291645e-06,72.94566666666667,0.2676027320903554,0.7199999999999989,0.0004505209555449639
S100,9633.0,9662.984375,N2,0.18478125000000004,13.807188739553336,-35.87,33.94,69.81,2.73,35.71406301928526,828.125,830.4931640625,0.49465458627432357,0.47729594061814057,0.2162430755153407,62.82046563745975,0.4760221557229419,63.63961030678928,0.21145833333333333,155,0.26058767499999996,0.0011793984777737376,8.689826576016379e-07,32.523999999999994,0.014966629547095605,1.3680559266644783e-05,73.27333333333333,0.07568942389058539,0.3200000000000074,-0.00011541669797544904
S100,9663.0,9692.984375,N2,0.19419270833333335,11.257281767184304,-27.4,27.41,54.81,1.835,37.6627032676006,781.25,778.0680338541666,0.48858053327982676,0.48619840486049404,0.40980681212479725,62.71166274183069,0.47703719793921845,63.63961030678928,0.20520833333333333,150,0.26180422499999995,0.0011028915061668694,6.451028225647929e-07,32.54233333333333,0.012023125864579397,5.659723757519744e-06,73.78400000000002,0.7634989631077878,2.1000000000000085,0.0013196531357566015
S100,9693.0,9722.984375,N2,-0.17452083333333335,16.10160950739809,-37.89,32.68,70.57,3.88,28.4268872459417,812.5,805.7535807291666,0.49209793056249373,0.47794114111990815,0.2530285309999645,62.7357159957604,0.47295718547527177,63.63961030678928,0.2635416666666667,179,0.263021075,0.001410892153700991,1.6720410351673906e-06,32.56066666666666,0.011234866364236255,7.2222241813763296e-06,75.85433333333334,0.26921717792311983,1.2199999999999989,0.0004414237308549615
S100,9723.0,9752.984375,N2,0.1965572916666667,18.31525323648323,-41.67,38.17,79.84,4.85,20.309937144260005,812.5,818.798828125,0.4911323014219285,0.4229525846816507,0.19249988726547926,62.7453216711588,0.47502636713897967,63.63961030678928,0.3229166666666667,202,0.2655082083333334,0.001187773525662146,7.254609172799766e-07,32.574000000000005,0.014047538337139181,1.0138891639240855e-05,75.64233333333333,0.8454729774247991,2.3500000000000085,-0.0014638545637626296
S100,9753.0,9782.984375,N2,0.03189583333333331,18.492495731647004,-42.36,32.85,75.21000000000001,3.575,15.4094751441466,812.5,811.7350260416666,0.49073004006502613,0.42029668753816696,0.1592592172022985,62.74030991077998,0.4769388143334027,63.63961030678928,0.3260416666666667,214,0.2670236833333333,0.0012696978773402,1.009886124643582e-06,32.58200000000001,0.011075498483892497,9.166669153286251e-06,73.95966666666666,0.1142652858726375,0.4399999999999977,2.4618062233631846e-05
S100,9783.0,9812.984375,N2,-0.20758854166666663,18.315610335047133,-40.78,37.27,78.05000000000001,3.835,15.647090554890605,812.5,804.4189453125,0.49874408239318707,0.3960402419753438,0.13928372696486196,62.80151682717082,0.4773023569123393,63.63961030678928,0.3802083333333333,216,0.26877392499999997,0.0012771191484646216,1.1268616338057833e-06,32.59333333333334,0.01468181036369665,1.0902780735346216e-05,73.85533333333333,0.15292118521934284,0.5400000000000063,0.00023673617532990742
S100,9813.0,9842.984375,N2,0.14757291666666664,18.259949846045576,-43.56,38.82,82.38,3.78,17.21484965608097,812.5,814.5914713541666,0.4995657836784082,0.3952352938440594,0.11557806855349136,62.81338365900193,0.4750876835178379,63.63961030678928,0.38645833333333335,229,0.27084466666666657,0.0012693391937889924,9.612038197709988e-07,32.61600000000001,0.01171893055416525,9.791669322827904e-06,74.18833333333335,0.026468010041474945,0.10000000000000853,-3.1145841782184574e-05
S100,9843.0,9872.984375,N2,-0.21216145833333327,18.75072591275285,-41.65,36.76,78.41,4.14,11.820034734556938,812.5,804.0445963541666,0.49989148127924277,0.39197129111142254,0.12801909579781012,62.82485877628267,0.4783162205139219,63.63961030678928,0.40625,217,0.272168025,0.0013930687435927235,1.450120402050895e-06,32.629666666666665,0.0155955834203857,1.0798614040422396e-05,74.116,0.04416635220014159,0.13000000000000966,-5.3402792264214074e-05
S100,9873.0,9902.984375,N2,-0.1337135416666667,17.208966797598812,-41.88,35.51,77.39,3.49,18.236487598831136,812.5,808.0810546875,0.4994256684071103,0.4061164310337068,0.2171044255588131,62.81667397336592,0.4752763306958571,63.63961030678928,0.378125,213,0.2742171166666667,0.0013972746400483414,1.1218930994718711e-06,32.63699999999999,0.012423096769054709,7.187501949733503e-06,74.15333333333334,0.05393411618715128,0.23000000000000398,4.062501102024027e-05
S100,9903.0,9932.984375,N2,0.23468749999999997,16.379665283459765,-43.5,34.21,77.71000000000001,2.25,39.984141987919216,812.5,806.1604817708334,0.4988876515698588,0.11110243021644486,0.04559597630883184,62.83432083398413,0.46569875665308585,63.63961030678928,0.4625,225,0.2759037416666667,0.0012217870279214809,1.0057973648538775e-06,32.651333333333326,0.00956846672960298,6.31944615870267e-06,74.50066666666667,0.08751888685052804,0.3100000000000023,-3.555556520061995e-05
S100,9933.0,9962.984375,N2,0.05530208333333337,15.61065601975391,-40.93,27.21,68.14,3.71,14.625624234896422,812.5,814.6321614583334,0.5163809693971646,0.12011279421166313,0.3445760277339225,62.94938731786962,0.5017166911414828,67.86751800382861,0.0020833333333333333,1,0.27759015000000004,0.0013199123938731775,1.1472481410720944e-06,32.66866666666667,0.010873004286868021,3.3333342375586368e-06,73.88533333333332,0.15934727972436682,0.5699999999999932,-0.00024208339900265864
S100,9963.0,9992.984375,N2,0.16346875000000002,15.716334985091365,-35.57,37.85,73.42,3.74,31.236178202481888,812.5,810.6201171875,0.3518906647391425,0.0,0.47597556069088254,63.0959386180806,0.35711329211502474,63.33245613427605,0.0,0,0.27995937499999995,0.0012103386651574,4.224699496717477e-07,32.690999999999995,0.0202237484161569,1.9687505340578143e-05,73.68033333333332,0.10473723735562691,0.29999999999999716,0.00012538197845648227
S100,9993.0,10022.984375,N2,-0.17924479166666682,14.200583215079948,-36.23,35.23,71.46,2.87,27.406220298218397,812.5,812.1256510416666,0.34437443284889774,0.032258047015004204,0.48669359942598617,63.091223276753986,0.35154958319482044,63.33245613427605,0.0,0,0.2810160666666667,0.0012207984868747009,1.0788744246078632e-06,32.714333333333336,0.01856220772310009,2.163195031248557e-05,73.88666666666668,0.1727490151121624,0.4300000000000068,0.00028048618719785854
S100,10023.0,10052.984375,N2,-0.021114583333333315,13.265730607447546,-36.28,32.41,68.69,2.6550000000000002,36.95302316706728,796.875,796.3623046875,0.33538431521001233,0.05581428468591172,0.46223598883578937,63.12091568989328,0.33541387774734394,63.33245613427605,0.0,0,0.28298024166666663,0.0012626073815444458,1.3118156770333164e-06,32.74066666666667,0.012364824660662872,9.166669153286251e-06,74.074,0.16325031904001377,0.480000000000004,0.00024895840086762054
S100,10053.0,10082.984375,N2,-0.057130208333333286,14.107775166542472,-34.06,32.77,66.83000000000001,3.4,23.782187618397653,796.875,802.734375,0.297201939858332,0.06441510347391793,0.49859176687947826,63.1048743416557,0.3192454497359543,63.33245613427605,0.0,0,0.28498669166666674,0.001214807829767283,7.955464397641189e-07,32.754666666666665,0.014313940369057579,4.097223333666491e-06,74.98466666666667,0.23399050313112266,0.769999999999996,0.0003787501027425419
S100,10083.0,10112.984375,N2,0.04838020833333333,16.992152160115708,-45.29,32.74,78.03,3.535,31.30176918519565,812.5,811.4583333333334,0.2582808246366733,0.12801909579781015,0.4958114490968875,63.096786580673886,0.2826626839394029,63.33245613427605,0.0,0,0.28688637499999997,0.001286174671020626,1.282864280290879e-06,32.77466666666666,0.009910712498210955,-2.8472229945807434e-06,74.70533333333333,0.3793919111185969,1.0499999999999972,-0.0006682640701671176
S100,10113.0,10142.984375,N2,-0.06760416666666663,13.487299360941364,-34.5,38.36,72.86,2.615,27.351189464156153,812.5,803.515625,0.2699987139887069,0.12801909579781015,0.49895615865914406,63.11842641808026,0.2826154726635788,63.33245613427605,0.0,0,0.28851958333333333,0.0011183292194410213,5.159280913433405e-07,32.79600000000001,0.013808210118138754,1.2013892147866352e-05,74.44366666666666,0.14483285385421193,0.39000000000000057,-9.12153025215114e-05
S100,10143.0,10172.984375,N2,0.1486145833333333,14.55411116594279,-40.79,35.19,75.97999999999999,3.005,24.765214191269298,812.5,808.4391276041666,0.2716154572133593,0.12401959270615269,0.48812282152024905,63.13992409276545,0.28865012238451254,63.33245613427605,0.0,0,0.29066502499999997,0.0012069711157997876,9.367964780806368e-07,32.81,0.012649110640673249,1.0694447345499046e-05,74.03833333333333,0.37046892207339355,1.0400000000000063,-0.0006028821079866829
S100,10173.0,10202.984375,N2,-0.055723958333333296,16.535245112613772,-92.39,77.07,169.45999999999998,2.465,14.94438235936904,828.125,823.4944661458334,0.25654623798103576,0.2304038573895845,0.49682586235018,63.1253572797136,0.27707094490455497,63.33245613427605,0.0,0,0.292436525,0.0013244092454279338,9.113498565944656e-07,32.823,0.011874342087037252,9.131946921642881e-06,72.59733333333334,0.42513474988003036,1.3100000000000023,-0.0007619446511351602
S100,10203.0,10232.984375,N2,-0.18699479166666666,14.202018015349305,-40.68,30.0,70.68,1.62,48.72114949886239,812.5,820.8251953125,0.3476343040826092,0.2732186624299299,0.4162028668676957,63.12017399237683,0.33368174269844164,63.33245613427605,0.0,0,0.2934184583333333,0.0012151429332650106,7.558606651097748e-07,32.832,0.009797958971133471,1.0416669492376412e-06,72.22866666666667,0.2587371038117442,0.769999999999996,-2.2083339323820675e-05
S100,10233.0,10262.984375,N2,0.07917187499999999,16.58636824485072,-45.38,37.72,83.1,4.01,18.778840595780615,828.125,818.8557942708334,0.21137108216357317,0.05581428468591172,0.4643497170476387,63.08740018040928,0.2387923998539865,63.33245613427605,0.29791666666666666,176,0.2948168333333333,0.0011691413183282115,9.307211726131656e-07,32.847333333333346,0.015260697523011107,1.284722570725448e-05,72.655,0.22287141285204504,0.5799999999999983,0.00033399314615699535
S100,10263.0,10292.984375,N2,0.06625520833333336,15.603319474803602,-35.01,32.43,67.44,3.565,22.579504526035308,843.75,834.7819010416666,0.2263462809256845,0.03225804701500421,0.45594905409547193,63.075178276475725,0.25619404911994614,63.33245613427605,0.284375,175,0.2963860083333333,0.0011153422456495474,5.99653157458006e-07,32.860666666666674,0.01806162291219003,5.763890452444477e-06,72.89566666666666,0.349358300634494,1.0,0.0004396181748096157
S100,10293.0,10322.984375,N2,0.13206770833333334,16.92684782335444,-43.34,34.16,77.5,3.4699999999999998,21.760745106761718,828.125,826.7903645833334,0.20912350152216008,0.0,0.4287201864431962,63.06790402791267,0.23914401378770414,63.33245613427605,0.2375,168,0.29847763333333327,0.0012080987744753648,1.1619738395111284e-06,32.88166666666666,0.01507389207279339,4.479167881717825e-06,72.30666666666666,0.2296567486973164,0.7999999999999972,-0.0003948612182240728
S100,10323.0,10352.984375,N2,-0.24971354166666668,13.381079555633454,-38.7,29.04,67.74000000000001,2.495,18.99480309157869,781.25,779.5572916666666,0.17677362623014653,0.05581428468591172,0.4416654382844553,63.086659942883166,0.21263172628104507,63.33245613427605,0.25729166666666664,167,0.30103932499999997,0.0011384175066182912,9.78750482516952e-07,32.88999999999999,0.010327955589886225,3.3333342375579947e-06,72.96300000000001,0.4495416183921856,1.5,0.0007512154815580161
S100,10353.0,10382.984375,N2,0.04733333333333339,13.037238934480039,-36.79,29.5,66.28999999999999,2.135,29.52614710437886,781.25,785.3922526041666,0.19249988726547926,0.06441510347391793,0.4422166387140533,63.08092755293229,0.22294407753581558,63.33245613427605,0.25625,167,0.302394775,0.0011501347418346338,5.818762429134833e-07,32.89466666666666,0.01431394036905512,5.069445819619341e-06,74.02133333333335,0.14847521304544026,0.5699999999999932,0.00018263893843287432
S100,10383.0,10412.984375,N2,0.06762500000000002,12.320640852895668,-31.04,31.59,62.629999999999995,2.5700000000000003,37.407604939782374,812.5,818.9208984375,0.19249988726547926,0.0,0.4480753110527292,63.08510893691259,0.22423295447218913,63.33245613427605,0.26875,172,0.30367533333333335,0.0012305968019172195,1.023873975660258e-06,32.90066666666665,0.011234866364233528,1.805556045343842e-06,73.37599999999999,0.36696593847385917,1.1400000000000006,-0.0005777084900467917
S100,10413.0,10442.984375,N2,-0.012182291666666541,12.078543919130032,-30.34,27.69,58.03,2.425,20.949407515927152,796.875,792.9117838541666,0.19982631347136334,0.09636964965693297,0.4299636107826129,63.07057695278199,0.2241417182755892,63.33245613427605,0.23125,150,0.3054151333333334,0.0011444850729573684,4.3338596825791314e-07,32.90199999999999,0.013266499161420602,2.0833338984729882e-06,72.87266666666666,0.2491175536881241,0.7999999999999972,-0.00029486119109732703
S100,10443.0,10472.984375,N2,0.25478124999999996,14.023265198488847,-40.15,33.62,73.77,2.895,21.7743450052171,796.875,797.9654947916666,0.21358993356949718,0.04559597630883185,0.431803187870997,63.067086691862556,0.2390806023622225,63.33245613427605,0.2375,150,0.30664275,0.0012218095954362035,9.296148355074927e-07,32.90799999999999,0.015790292376436026,6.875001864964046e-06,73.45466666666667,0.30635201248817523,1.0499999999999972,0.0005444445921344901
S100,10473.0,10502.984375,N2,-0.2229895833333333,13.325555594260406,-35.24,37.74,72.98,2.36,19.099995575483252,796.875,794.482421875,0.23040385738958447,0.05581428468591172,0.41197356981027583,63.04993612808956,0.25069086639448973,63.33245613427605,0.20625,141,0.30829720833333335,0.0012416647017601807,8.324509636639896e-07,32.911333333333324,0.017074997966488214,-3.611112090688227e-06,74.90233333333332,0.697756802586371,1.9500000000000028,0.0012274656107491356
S100,10503.0,10532.984375,N2,-0.12655729166666665,13.196546868082928,-36.12,37.72,73.84,1.995,17.12011943426392,765.625,775.2197265625,0.19982631347136334,0.08507936450096987,0.3919712911114225,63.0548026654465,0.22170360454033364,63.33245613427605,0.18229166666666666,118,0.31023943333333326,0.001102436753539893,6.806481881098661e-07,32.916,0.013808210118139028,7.708335424354002e-06,76.14899999999999,0.36736312643849744,1.0300000000000011,0.0006349654500231819
S100,10533.0,10562.984375,R,0.31001562500000013,13.05299198020027,-41.29,41.57,82.86,2.42,34.57511585915254,796.875,799.0641276041666,0.20684625513624577,0.0,0.43361244016274364,63.071336064862756,0.23341735113063802,63.33245613427605,0.24166666666666667,149,0.31210735,0.0010967750806341319,7.761616688806615e-07,32.92933333333333,0.014126413400280268,-8.402780057179063e-06,76.65766666666666,0.2196312566300363,0.6200000000000045,-0.00032086814259660854
S100,10563.0,10592.984375,R,-0.19193750000000007,13.444028239653237,-34.18,28.77,62.95,2.7350000000000003,17.097716440632254,781.25,776.7252604166666,0.2221950938302244,0.07880950133074056,0.41962362227953753,63.05656439564699,0.24558423733142762,63.33245613427605,0.21875,148,0.3137299166666667,0.0012577697959969558,1.1675220180995078e-06,32.93266666666667,0.011234866364236902,-3.05555638442875e-06,76.27933333333334,0.0926258903091115,0.2600000000000051,-0.00012006947701537308
S100,10593.0,10622.984375,R,0.03881770833333314,11.325733089228105,-29.71,26.89,56.6,2.8449999999999998,20.280855749393496,781.25,786.0514322916666,0.2263462809256845,0.0,0.41620286686769575,63.0543457218886,0.24474936407385522,63.33245613427605,0.21145833333333333,149,0.31566165000000007,0.0011794018727727996,9.484256044991282e-07,32.94533333333333,0.011175369742827509,6.458335085268871e-06,75.80566666666667,0.19128832223171008,0.6200000000000045,6.98958522937967e-05
S100,10623.0,10652.984375,R,-0.1507760416666666,12.04125324716421,-30.78,38.9,69.68,0.865,32.797960561962704,781.25,784.7493489583334,0.21578094200034337,0.06441510347391793,0.4076045792867832,63.054695780464236,0.2417954364859303,63.33245613427605,0.20625,137,0.31692088333333335,0.0011550195826863176,7.535097530137076e-07,32.946,0.010832051206181924,-7.083335254811807e-06,75.79833333333333,0.123019871926813,0.4300000000000068,-0.00017920143750039264
S100,10653.0,10682.984375,R,0.11538020833333337,14.270788800218495,-45.6,50.49,96.09,2.285,22.544167049122507,796.875,790.6982421875,0.1821904480893551,0.07198059875565237,0.39361218928731806,63.06263341318379,0.2094046984399706,63.33245613427605,0.1875,129,0.3183298833333333,0.0011563801291338278,1.0043874252353097e-06,32.952,0.007916228058024362,1.875000508626437e-06,76.00966666666666,0.11875698809847873,0.5100000000000051,8.864585738006193e-05
S100,10683.0,10712.984375,R,0.0363020833333333,11.770172987630456,-26.9,33.14,60.04,2.7800000000000002,34.82481148620005,789.0625,793.7174479166666,0.1874276480775686,0.032258047015004204,0.35398126274564307,63.04840792870829,0.20240056454107397,63.33245613427605,0.140625,113,0.3197709916666666,0.0012077089225460056,1.0497057969037072e-06,32.96333333333334,0.011925695879997698,2.638889604733131e-06,75.91533333333332,0.14509154198490065,0.4000000000000057,-0.00022902783990556055
S100,10713.0,10742.984375,R,0.013874999999999993,12.041179153265748,-29.39,33.64,63.03,2.335,40.59186627568579,781.25,788.1917317708334,0.15925921720229852,0.07198059875565237,0.3781752147557473,63.06493250770851,0.18740632727744452,63.33245613427605,0.16770833333333332,115,0.32143598333333334,0.0012905588646224477,1.2628605856284248e-06,32.970000000000006,0.013662601021279173,6.666668475116161e-06,76.00600000000001,0.17623090913155295,0.5,0.00018597227267043009
S100,10743.0,10772.984375,R,-0.016572916666666663,12.698334541588508,-31.41,38.45,69.86,2.1399999999999997,21.441976924390623,765.625,767.4886067708334,0.1592592172022985,0.08507936450096985,0.3172537731804339,63.04713217798458,0.17606570291045703,63.33245613427605,0.11041666666666666,82,0.3236772,0.0014620327321917255,1.4903402480306643e-06,32.985666666666674,0.01229724449713128,9.618058164620872e-06,76.16333333333334,0.22253588973966085,0.6899999999999977,0.0003984723303147611
S100,10773.0,10802.984375,R,0.20393229166666665,12.856135184449185,-36.31,35.21,71.52000000000001,1.92,14.82049335929531,765.625,766.6097005208334,0.15612494995995993,0.06441510347391793,0.2900232719350102,63.04261326126031,0.17307471748266468,63.33245613427605,0.09270833333333334,75,0.32551308333333334,0.0013088461176632721,1.278121440462631e-06,32.99100000000001,0.007000000000000029,1.701389350420048e-06,76.51233333333333,0.24829664158466247,0.8000000000000114,-0.00022197922688238665
S100,10803.0,10832.984375,R,-0.31839583333333343,16.916059736533878,-45.87,33.63,79.5,2.66,27.99129020617202,734.375,727.7018229166666,0.1356408400888169,0.11110243021644485,0.2667236267291586,63.042226721986175,0.15324251050204415,63.33245613427605,0.07708333333333334,56,0.32710330833333334,0.0013152955548458303,1.5643018566356935e-06,32.99633333333334,0.0111005505368976,1.0243058334162377e-05,77.882,0.7897527039101117,2.5799999999999983,0.0014056948257635694
S100,10833.0,10862.984375,R,0.17024479166666667,11.773837247636262,-29.1,29.57,58.67,2.13,27.17785967625363,734.375,744.3603515625,0.1356408400888169,0.05581428468591172,0.23040385738958447,63.03798889323658,0.14605237479095706,63.33245613427605,0.05625,49,0.32914171666666664,0.0013330090908875653,8.555301799940826e-07,33.01133333333333,0.01606929439092539,3.888889943817891e-06,80.344,0.5147659662409704,1.5499999999999972,0.0007171529723179709
S100,10863.0,10892.984375,R,-0.331859375,13.86563631980665,-38.22,31.92,70.14,2.0549999999999997,28.698283641428112,765.625,765.5843098958334,0.1496378730654628,0.09636964965693297,0.2840810446519717,63.042309094917435,0.16637502082878664,63.33245613427605,0.08645833333333333,60,0.3305293833333333,0.0011662022779327604,5.454068319788483e-07,33.02966666666666,0.013034143197344526,1.9097227402671423e-06,79.65799999999999,0.7387169056321,2.1499999999999915,-0.0013169448016885836
S100,10893.0,10922.984375,R,0.1329739583333333,11.07858060813697,-26.46,28.16,54.620000000000005,2.5,41.97994004287344,765.625,766.3004557291666,0.1356408400888169,0.07198059875565237,0.2732186624299299,63.044894793936784,0.15340172133785504,63.33245613427605,0.08125,70,0.33197042499999996,0.001305084152219702,1.0230907723228091e-06,33.05133333333334,0.013597385369580654,1.0694447345499194e-05,78.31133333333334,0.1889044438039745,0.6200000000000045,0.00013972226012431066
S100,10923.0,10952.984375,R,0.054770833333333345,12.981478911863212,-31.15,30.61,61.76,2.8099999999999996,21.822753456494745,750.0,744.1650390625,0.12801909579781012,0.08507936450096985,0.29292696461272083,63.050399132641864,0.1488932992252207,63.33245613427605,0.09270833333333334,72,0.33432898333333333,0.0011446004614663028,9.059629193692751e-07,33.056666666666665,0.010749676997732492,1.3888892656491604e-06,78.78966666666665,0.3703645351392184,1.0499999999999972,0.0006571182338102858
S100,10953.0,10982.984375,R,-0.00940625000000006,11.215561652861064,-26.43,24.53,50.96,2.17,24.127384520352845,765.625,758.3089192708334,0.18483053424390922,0.07198059875565238,0.31598061649411346,63.038472460357795,0.19882537910829862,63.33245613427605,0.109375,91,0.33617549166666666,0.0013017405399171776,1.1950643432791612e-06,33.062666666666665,0.013148721948878225,5.347223672749918e-06,79.62433333333333,0.1837332002902274,0.6500000000000057,0.00029684035830087815
S100,10983.0,11012.984375,N1,0.06441145833333316,12.055768962559737,-29.48,27.21,56.69,2.605,25.75801225962153,781.25,781.982421875,0.15612494995995993,0.1015291077584267,0.2699987139887069,63.03741272438458,0.16836571978066706,63.33245613427605,0.07708333333333334,61,0.337573875,0.0011425059340655558,6.733003128527333e-07,33.07600000000001,0.012806248474867698,5.763890452445143e-06,79.628,0.3802227417361206,1.3699999999999903,-0.0006553473999965803
S100,11013.0,11042.984375,N2,-0.048046874999999975,12.48982083821539,-30.03,29.32,59.35,2.5149999999999997,35.227757951185794,765.625,771.826171875,0.12801909579781012,0.06441510347391795,0.28256636388643286,63.04887933231252,0.14882295800171727,63.33245613427605,0.0875,65,0.3388868,0.0011514402112137632,2.837817610085032e-07,33.076666666666675,0.009428090415822108,2.361111751604036e-06,77.41733333333333,0.5077396533220118,1.6800000000000068,-0.0008723613477542736
S100,11043.0,11072.984375,N2,0.10758333333333336,11.026711294498565,-27.21,28.84,56.05,2.6950000000000003,21.611174349078063,765.625,763.4847005208334,0.10642856726723121,0.03225804701500421,0.24393467007354422,63.04735923645381,0.12193567788934634,63.33245613427605,0.0625,52,0.3405942666666667,0.0013243034756261782,1.3381275331292214e-06,33.088666666666676,0.011469767022723534,1.152778090488826e-05,77.703,0.25767097883412005,0.9399999999999977,0.0004185070579717506
S100,11073.0,11102.984375,N2,0.0005416666666666625,12.188844020692196,-34.28,36.15,70.43,2.165,40.01762002055313,765.625,761.71875,0.11987768650679834,0.1064285672672312,0.232399078305449,63.040536291168365,0.13366920070649405,63.33245613427605,0.05520833333333333,42,0.34212045,0.001228506531321668,7.289025414774672e-07,33.10533333333334,0.0123107902084119,5.486112599313726e-06,78.45666666666666,0.2021110805692966,0.7600000000000051,0.0003595139864132983
S100,11103.0,11132.984375,N2,-0.05966666666666668,12.399975008095335,-33.63,29.51,63.14,1.98,28.16099053999639,781.25,785.693359375,0.11557806855349137,0.09090593428863095,0.18483053424390916,63.035725138119986,0.12273811437965092,63.33245613427605,0.034375,31,0.34414865,0.0012766074876405797,1.071861401872121e-06,33.11266666666668,0.009977753031397661,-2.3611117516037876e-06,78.60999999999999,0.1116840782445436,0.45000000000000284,-0.0001871528285462318
S100,11133.0,11162.984375,N2,-0.12136458333333332,14.781849875508781,-38.01,35.96,73.97,3.035,20.043626463431107,781.25,778.2552083333334,0.12801909579781015,0.045595976308831845,0.194978186101819,63.03526375051198,0.13425313176984607,63.33245613427605,0.03958333333333333,34,0.346059175,0.0011955412767341075,1.16018325742819e-06,33.12666666666667,0.01273664878302879,7.708335424353804e-06,77.90233333333335,0.19803506984594665,0.8299999999999983,-0.0003362153689820348
S100,11163.0,11192.984375,N2,0.17876041666666664,11.195746412556266,-28.96,33.18,62.14,2.25,64.27420549083408,781.25,772.4853515625,0.16532992583014122,0.2957874817753449,0.48717938174762687,63.10769825996213,0.208375453385874,63.33245613427605,0.30625,125,0.34842838333333337,0.0010112903406319877,7.258200753635209e-07,33.14166666666666,0.013682917167848117,1.1493058673245976e-05,77.23866666666667,0.1276905982791569,0.5499999999999972,-0.000215000058322499
S100,11193.0,11222.984375,N1,-0.023468749999999986,10.513643643155946,-30.86,26.53,57.39,2.145,40.812912817349236,812.5,817.5862630208334,0.17677362623014653,0.3376735664810025,0.4883528419738017,63.09854245808542,0.21159631028214007,63.33245613427605,0.2760416666666667,131,0.3495599166666667,0.0013349480800349067,1.3868962095530057e-06,33.14699999999999,0.0078102496759051,9.375002543130331e-07,75.88733333333333,0.4929701365757932,1.6500000000000057,-0.0008331946704629656
S100,11223.0,11252.984375,N2,-0.044567708333333345,14.080411978340356,-32.01,31.99,64.0,2.8,21.97442695170428,812.5,821.5738932291666,0.14707433282187615,0.07198059875565237,0.2506934826081887,63.036383577955114,0.1638456984815725,65.19969325081216,0.051041666666666666,36,0.35150262500000007,0.0012678190069465639,1.360540950667561e-06,33.16099999999999,0.010440306508911059,7.951391045841948e-06,73.97,0.688132739132987,2.030000000000001,-0.0012247919989127613
S100,11253.0,11282.984375,N2,-0.08821354166666664,12.445762866091547,-33.24,29.55,62.790000000000006,1.91,29.411014456935018,828.125,827.7180989583334,0.032258047015004204,0.0,0.11557806855349137,63.034928654394825,0.04400229562040922,63.03967004989794,0.0,0,0.35285805833333334,0.001214846089674421,7.469587529727495e-07,33.16799999999999,0.013266499161422815,-4.305556723513016e-06,73.43966666666665,0.2695364333237504,0.8699999999999903,-0.00019225699659749295
S100,11283.0,11312.984375,N2,0.05933333333333334,12.367930353224917,-30.31,36.15,66.46,2.325,20.30372756242088,796.875,796.8587239583334,0.05581428468591172,0.0,0.2382571993782256,63.01993948700833,0.0837778041821514,63.03967004989794,0.0,0,0.354224,0.0011660930708995848,4.2514855282893e-07,33.17666666666666,0.015986105077710578,7.3611131079416685e-06,73.16766666666666,0.37678184079856664,1.0300000000000011,0.0006279515592316528
S100,11313.0,11342.984375,N2,0.20219270833333336,12.132894381698327,-29.88,31.9,61.78,2.6,18.818072972485243,796.875,791.5608723958334,0.05581428468591173,0.0,0.1496378730654628,63.03037262120254,0.06647479995309064,63.03967004989794,0.0,0,0.35611337499999995,0.0011142470706154025,7.786636226843598e-07,33.175666666666665,0.013585122581543924,-9.375002543136256e-07,74.594,0.4787803950316534,1.5,0.0008618057893353369
S100,11343.0,11372.984375,N2,-0.04782291666666668,12.127822332601244,-30.96,30.52,61.480000000000004,2.84,19.783485126957483,812.5,815.1448567708334,0.06441510347391795,0.0,0.1529193630552463,63.02910893709748,0.07338207431853176,63.03967004989794,0.0,0,0.357298275,0.0009912734735556105,3.936031883689214e-07,33.184333333333335,0.01563827214098762,7.326390876299904e-06,75.25933333333334,0.1947979009697538,0.5999999999999943,-0.0003384028695754309
S100,11373.0,11402.984375,N2,-0.10099479166666665,11.215524550259468,-34.3,29.49,63.78999999999999,1.7,27.237964239196085,765.625,783.4309895833334,0.07198059875565237,0.06441510347391793,0.17355242063518828,63.031517611023766,0.0833925528308665,63.33245613427605,0.010416666666666666,9,0.35927264999999997,0.0012698153320463497,1.132397876627023e-06,33.196666666666665,0.016996731711976933,1.1597225368171696e-05,74.222,0.4944653678469281,1.2999999999999972,-0.0008617363448720515
S100,11403.0,11432.984375,N2,-0.18107812500000006,14.130626340142529,-43.11,36.51,79.62,2.2350000000000003,36.19719945988373,828.125,812.98828125,0.045595976308831845,0.0,0.1682735042192389,63.02960764032537,0.06306641977737316,63.03967004989794,0.0,0,0.36121507499999994,0.0012643274639276285,1.286724958421484e-06,33.215999999999994,0.009165151389909854,2.569445141450536e-06,73.946,0.20375802642677404,0.6500000000000057,0.00010826391825735742
S100,11433.0,11462.984375,N2,0.07753645833333318,13.798028762582206,-35.0,38.28,73.28,2.74,35.41294059600514,828.125,832.1044921875,0.04559597630883185,0.0,0.22838645595544604,63.022358025699454,0.07966940371827845,63.03967004989794,0.0,0,0.3627948666666666,0.0010779287927419985,5.24503614502929e-07,33.22133333333333,0.01231079020841158,7.708335424352396e-06,73.48566666666666,0.15527788709994153,0.5300000000000011,-0.00014586809512481003
S100,11463.0,11492.984375,N2,0.10469791666666678,12.64496930652314,-29.28,33.68,62.96,3.02,27.732369077254187,828.125,828.80859375,0.03225804701500421,0.0,0.2732186624299299,63.016091050988656,0.08150861002280041,63.03967004989794,0.0,0,0.364758475,0.001202390743217449,5.082824729498874e-07,33.23533333333334,0.01146976702272425,1.9444449719085633e-06,72.60066666666667,0.2457225173962591,0.769999999999996,-0.0003390973142082544
S100,11493.0,11522.984375,N2,-0.010651041666666616,12.294714791963582,-32.03,27.86,59.89,2.575,31.982400132188854,828.125,822.1923828125,0.04559597630883185,0.0,0.3754496725224597,62.99048338709716,0.11200145759705725,63.03967004989794,0.0,0,0.36590042500000003,0.0011806937131936526,9.816918895648619e-07,33.242666666666665,0.013148721948878813,-7.638890961064712e-07,72.43633333333334,0.12158627481020201,0.3199999999999932,-0.0001814236603254284
S100,11523.0,11552.984375,N2,0.2082812499999999,12.401717617265701,-28.52,35.13,63.650000000000006,2.415,35.06990260379927,812.5,824.3733723958334,0.0,0.0,0.3960402419753438,62.98547571394478,0.11018509308877454,63.03967004989794,0.0,0,0.36786454166666666,0.0012935474407988294,1.4038551985284155e-06,33.255333333333326,0.010241527663826413,1.5277781922143752e-06,72.058,0.41822163183333017,1.1400000000000006,-0.0006852085192080412
S100,11553.0,11582.984375,N2,-0.1554583333333333,13.500653942430489,-32.83,39.84,72.67,2.56,21.70635183593419,843.75,849.2350260416666,0.0,0.0,0.3790736493047521,62.99127189960822,0.10546470007142845,63.03967004989794,0.0,0,0.3701487666666666,0.0012149383230801911,9.398613660648269e-07,33.25866666666666,0.01231079020841485,2.847222994581335e-06,70.86633333333333,0.2229272427397685,0.7800000000000011,-0.0003967014965010574
S100,11583.0,11612.984375,N2,-0.230359375,14.08802293195416,-31.53,35.19,66.72,3.045,18.398549735808402,859.375,857.9996744791666,0.045595976308831845,0.0,0.38863520991913336,62.98613186530295,0.1177255848763054,63.03967004989794,0.0,0,0.3712372166666666,0.0011765705332542635,6.958586957081953e-07,33.266,0.013063945294843919,-5.555557062596247e-07,70.159,0.18520889107527558,0.5999999999999943,-0.00018704866185130848
S100,11613.0,11642.984375,N2,0.14940625000000007,13.59162840384824,-32.13,31.75,63.88,3.315,20.627747876052332,843.75,848.1852213541666,0.0,0.0,0.4141054092022411,62.978520291148655,0.11521112812660757,63.03967004989794,0.0,0,0.373158375,0.0013899471216710637,1.2670200919650895e-06,33.27133333333333,0.011469767022722982,4.444445650077639e-06,70.29266666666666,0.06292499944819675,0.21999999999999886,8.888891300155056e-05
S100,11643.0,11672.984375,N2,-0.18568229166666675,13.346310911676857,-31.44,47.01,78.45,2.0149999999999997,23.96566859197798,843.75,844.9381510416666,0.0,0.0,0.36505326856349185,62.9956190388558,0.1015639930387022,63.03967004989794,0.0,0,0.37522920833333323,0.0012476426631574213,1.172423712137507e-06,33.275333333333336,0.011469767022722266,1.4583337289314741e-05,70.76333333333334,0.2852990633625605,0.6999999999999886,0.00047909735218569337
S100,11673.0,11702.984375,N2,0.20272395833333323,15.723040310018531,-39.86,31.4,71.25999999999999,3.88,24.154413558946686,843.75,845.41015625,0.04559597630883185,0.0,0.35189066473914243,62.99743880989328,0.10604272920901625,63.03967004989794,0.0,0,0.37637134166666664,0.001100372395266204,4.151693834549312e-09,33.275999999999996,0.010519822558704825,9.513891469695796e-06,70.93066666666667,0.14463594143765066,0.39000000000000057,0.00019361116363149995
S100,11703.0,11732.984375,N2,0.02118229166666671,14.735046774473991,-35.03,31.98,67.01,3.1,16.649356435787073,828.125,835.4329427083334,0.04559597630883185,0.0,0.3984289895605266,62.982654153904896,0.12017652130829302,63.03967004989794,0.0,0,0.37816418333333335,0.0014366010521559378,1.59943055540108e-06,33.279333333333334,0.014360439485691287,5.555557062596715e-06,70.94166666666666,0.07416573033116881,0.30000000000001137,1.3229170255307926e-05
S100,11733.0,11762.984375,N2,-0.12990624999999997,14.527097108778396,-33.88,31.03,64.91,2.62,17.355328762533446,843.75,834.1471354166666,0.032258047015004204,0.03225804701500421,0.40232478717449166,62.98240167851255,0.1181262312097459,63.25345840347388,0.0010416666666666667,1,0.38028825000000005,0.0013392764977778156,1.1097555093737846e-06,33.28066666666667,0.013399834161493481,-3.472223164122913e-06,71.41733333333333,0.08732824412652664,0.4299999999999926,0.00010270836119475987
S100,11763.0,11792.984375,N2,0.03747916666666664,14.612331560890594,-32.6,34.53,67.13,3.54,20.298618888121204,843.75,835.0911458333334,0.0,0.0,0.4229525846816507,62.97475277046742,0.11767256196704078,63.03967004989794,0.0,0,0.3822203333333334,0.0012664704453278365,8.102970948071532e-07,33.282666666666664,0.012092238098143577,4.652779039925029e-06,71.79599999999999,0.058172158288994295,0.19999999999998863,9.354169204147194e-05
S100,11793.0,11822.984375,N2,0.20274479166666667,13.69926469732477,-35.27,25.89,61.160000000000004,3.625,27.688489036605237,843.75,852.734375,0.04559597630883184,0.0,0.4763094159495718,62.94092161712812,0.13983080204537424,63.03967004989794,0.0,0,0.3840452083333334,0.0012443345269382241,1.022169331100627e-06,33.284666666666666,0.01783878421367898,4.444445650076776e-06,71.60566666666666,0.19196672165305692,0.7000000000000028,-0.00033295147920775817
S100,11823.0,11852.984375,N2,-0.19120312499999992,13.926560458661005,-33.09,33.13,66.22,2.7350000000000003,13.987927450315834,828.125,835.5387369791666,0.0,0.0,0.4679843283671177,62.94953936283146,0.13020115463021242,63.03967004989794,0.0,0,0.38605171666666666,0.0014087463231737417,1.4560199262206715e-06,33.275333333333336,0.01024152766382336,-9.444447006413446e-06,71.216,0.06019966777316688,0.14999999999999147,7.159724164421516e-05
S100,11853.0,11882.984375,N2,0.18621354166666673,15.698909154189131,-39.76,31.76,71.52,3.705,16.513237456504243,859.375,862.1256510416666,0.0,0.0,0.48385276506793773,62.9356285172392,0.13461602208492435,63.03967004989794,0.0,0,0.3883892333333333,0.0011453193494489738,9.801113769833355e-07,33.275333333333336,0.01024152766382336,5.555557062599453e-07,70.98966666666665,0.06988005596893916,0.28000000000000114,-9.968752704197079e-05
S100,11883.0,11912.984375,N2,-0.17135937499999987,14.230753891807101,-33.66,36.25,69.91,2.8899999999999997,32.50170968115231,859.375,855.9651692708334,0.0,0.0,0.4941838371806139,62.92171767164694,0.13749030106416238,63.03967004989794,0.0,0,0.39024611666666675,0.0012892472751140137,8.652758423599897e-07,33.272666666666666,0.014360439485691396,-8.333335593895062e-06,70.40133333333333,0.260700765033187,0.8599999999999994,-0.0004681251269870684
S100,11913.0,11942.984375,N2,0.07629166666666663,14.72150946526082,-36.18,38.43,74.61,3.5149999999999997,22.01489568253911,843.75,850.3011067708334,0.032258047015004204,0.0,0.4999902342796308,62.90045276445641,0.14332489800871084,63.03967004989794,0.0,0,0.39254112500000005,0.0013734715539009204,1.086337317257305e-06,33.260666666666665,0.01339983416149506,7.362939417582259e-20,68.93033333333332,0.503272512881661,1.75,-0.0008837849619642351
S100,11943.0,11972.984375,N2,0.01732291666666675,14.908237750761316,-37.42,40.27,77.69,2.21,26.024946567229332,859.375,863.3219401041666,0.0,0.0,0.49984372557830503,62.90403930537345,0.13906497773555607,63.03967004989794,0.0,0,0.39440905000000004,0.0013862464598692363,1.2148193399575004e-06,33.254,0.009521904571391956,-6.2500016954224435e-06,68.08266666666667,0.12255429635698428,0.3299999999999983,-0.00017527782532493177
S100,11973.0,12002.984375,N2,-0.08061458333333338,15.664078732531767,-36.85,37.94,74.78999999999999,3.0,16.760686091029147,859.375,853.2633463541666,0.0,0.0,0.4996483138168286,62.90577816107248,0.13901061087873984,63.03967004989794,0.0,0,0.39587102499999993,0.0012436686151764832,5.963740767073777e-07,33.242000000000004,0.013266499161423102,3.194445310993422e-06,69.01233333333333,0.5254945818517597,1.8500000000000085,0.0009103127469381363
S100,12003.0,12032.984375,N2,-0.0854010416666668,15.190368098376206,-36.85,38.48,75.33,3.06,17.576766726916002,859.375,864.5100911458334,0.0,0.0,0.49851232675888324,62.88983865049803,0.13869456006758227,63.03967004989794,0.46145833333333336,211,0.397610775,0.0011432565508413591,9.031740731266527e-07,33.244,0.010519822558707979,-1.8750005086267322e-06,69.853,0.07475069676375429,0.18999999999999773,-0.00012378475580098762
S100,12033.0,12062.984375,N2,0.05837499999999999,14.59106953131635,-36.21,34.64,70.85,2.92,28.554225441852566,859.375,857.9996744791666,0.0,0.0,0.4977978850648122,62.91360301171813,0.13849579030576442,63.03967004989794,0.0,0,0.3994575249999999,0.001111565517356043,6.94432697057485e-07,33.23800000000001,0.012220201853216399,2.777778531298914e-06,69.7363333333333,0.07440803421375425,0.19999999999998863,-0.00012420142258067743
S100,12063.0,12092.984375,N2,0.4511614583333335,14.474891178886212,-36.71,33.61,70.32,2.49,38.58303479023527,859.375,867.7815755208334,0.07198059875565237,0.0,0.1715147740235031,63.02699100136431,0.08208926407092555,63.33245613427605,0.0010416666666666667,1,0.401111825,0.0012334337413801419,9.600360677181226e-07,33.23133333333333,0.013597385369580654,-7.638890961070545e-06,69.611,0.06046210934682054,0.21999999999999886,-9.496530353876745e-05
S100,12093.0,12122.984375,N2,-0.26757812500000006,13.677728106881329,-38.45,33.54,71.99000000000001,1.8050000000000002,25.979895764286095,875.0,877.1077473958334,0.13928372696486202,0.0,0.18742764807756854,63.03184092094192,0.14270056203505263,63.33245613427605,0.036458333333333336,33,0.4022643333333333,0.0011353802764810577,7.28415562178695e-07,33.212999999999994,0.015088627063674167,-5.937501610650148e-06,69.38733333333333,0.1416317604054816,0.6099999999999994,-0.0001690278236295113
S100,12123.0,12152.984375,N2,0.026692708333333332,14.231666475729577,-34.02,40.6,74.62,1.44,30.012508892732544,859.375,859.5377604166666,0.11987768650679835,0.0,0.28319351635998546,63.025727894733535,0.13813642654958658,63.33245613427605,0.03854166666666667,30,0.40361985,0.0012694546575202934,1.0601530653626903e-06,33.20666666666666,0.01867856763482874,-2.777778531299596e-07,67.468,0.48976456929154544,1.6700000000000017,-0.00069201407660972
S100,12153.0,12182.984375,N2,-0.2098645833333334,14.69244478757123,-36.47,44.71,81.18,1.68,23.706120339139122,828.125,823.9908854166666,0.0,0.0,0.47920176501889294,62.94026546576995,0.1333220352142876,63.03967004989794,0.0,0,0.4047833583333334,0.001306252322459393,1.0571676044834062e-06,33.20399999999999,0.015620499351813113,-1.305555909710244e-05,67.7,0.2340227909129077,1.009999999999991,0.0001837500498453903
S100,12183.0,12212.984375,N2,0.11173958333333335,14.501492922242518,-71.31,36.35,107.66,1.88,38.40583630814871,828.125,829.5979817708334,0.09107288747664329,0.0,0.4366012594143794,62.96487582926295,0.14942714668209853,63.97655820689325,0.003125,3,0.40603231666666667,0.001203689757809527,8.85644337468623e-07,33.199,0.016603212540550215,-1.5381948617065353e-05,70.08033333333333,0.582285630559056,2.180000000000007,0.0006717015710996039
S100,12213.0,12242.984375,N2,-0.30047395833333346,14.738648599372338,-64.49,32.92,97.41,2.3449999999999998,70.70468317777221,828.125,811.9873046875,0.06441510347391795,0.0,0.22267315359812312,63.02187888123957,0.08582314200032827,63.33245613427605,0.0010416666666666667,1,0.4078252916666667,0.001318283905916032,1.1104896675590512e-06,33.19733333333333,0.01691810338726606,7.152779718093661e-06,70.43133333333331,0.29452485275251117,0.769999999999996,0.0004610417917322543
S100,12243.0,12272.984375,N2,0.3499375,15.805281398958401,-36.73,39.4,76.13,2.6799999999999997,30.326506884060255,859.375,862.4674479166666,0.05581428468591172,0.03225804701500421,0.4519200934162292,62.958733408852275,0.1368242902435314,63.33245613427605,0.0020833333333333333,2,0.40965024166666664,0.0011091854217986133,4.1327810690052744e-07,33.18533333333333,0.01284090685617279,-3.750001017253047e-06,70.47766666666666,0.16660698931584295,0.5,0.0001233680890212926
S100,12273.0,12302.984375,N2,0.20772916666666666,14.832597601706496,-38.26,44.84,83.1,1.61,39.401213483147956,843.75,856.5673828125,0.05581428468591172,0.0,0.42682919267808084,62.97008790775614,0.130335040561138,63.03967004989794,0.0,0,0.41124073333333333,0.001164451549967709,5.215075199401881e-07,33.187,0.015088627063675296,-4.6180568082841015e-06,70.51466666666666,0.19266089956766613,0.7199999999999989,-0.000140208371367288
S100,12303.0,12332.984375,N2,-0.4281041666666668,16.44552406018578,-43.61,49.51,93.12,1.79,25.160465242726907,859.375,856.4453125,0.0,0.0,0.4721359194012767,62.94635146071656,0.13135619746698005,63.03967004989794,0.0,0,0.41322610833333334,0.0013425558138356517,1.4191043346094747e-06,33.181999999999995,0.016000000000001256,-1.0902780735347274e-05,69.828,0.09997999799960036,0.3299999999999983,9.13194692164379e-05
S100,12333.0,12362.984375,N1,-0.022979166666666564,15.427424673679855,-39.52,45.83,85.35,2.68,34.13034322576063,843.75,848.6002604166666,0.032258047015004204,0.032258047015004204,0.48669359942598617,62.93168505395746,0.14029588794976625,63.25345840347388,0.0010416666666666667,1,0.41544589166666673,0.0014407489360041958,1.3718656065173598e-06,33.171,0.010440306508911944,1.2847225707260827e-06,69.16133333333333,0.5380565852109696,1.6200000000000045,-0.0009544447033541411
S100,12363.0,12392.984375,W,0.09223958333333335,16.119796708450345,-41.91,48.23,90.13999999999999,2.5999999999999996,20.25357036747369,859.375,859.375,0.0,0.04559597630883185,0.4941838371806139,62.922163064050224,0.13821604251084105,63.25345840347388,0.0020833333333333333,2,0.4168974833333333,0.0012484703172504989,6.222918354740903e-08,33.166999999999994,0.011000000000001172,-4.201390028589125e-06,67.53399999999999,0.48391872595853824,1.2199999999999989,-0.0008016668841327295
S100,12393.0,12422.984375,W,-0.11598958333333324,15.680373137430696,-38.03,42.59,80.62,2.72,25.94537863001375,890.625,871.8098958333334,0.0,0.0,0.4977978850648122,62.91360301171813,0.13849579030576442,63.03967004989794,0.0,0,0.41881868333333344,0.0014413255240884547,1.8703720351486486e-06,33.15933333333332,0.009285592184789674,-2.013889435191405e-06,67.53500000000001,0.3056332224524464,0.7600000000000051,0.0005267015317658232
S100,12423.0,12452.984375,W,0.45082291666666663,14.808680965129028,-37.72,47.54,85.25999999999999,2.26,25.17246389880835,828.125,823.8199869791666,0.0,0.032258047015004204,0.4999609359740019,62.899046418315194,0.13904915185506891,63.03967004989794,0.49375,132,0.4213266583333334,0.0010639463919439528,5.045276976257868e-07,33.15299999999999,0.0078102496759051,1.7361115820611768e-07,69.164,0.5816046767349786,1.7199999999999989,0.000886250240410762
S100,12453.0,12482.984375,N1,-0.1441249999999999,14.050644074983715,-39.01,39.71,78.72,1.875,39.51573204266365,765.625,772.314453125,0.08507936450096985,0.0,0.3347625609625757,63.00399981872686,0.1256921180177098,63.33245613427605,0.009375,7,0.4224581666666667,0.0012151886776226287,5.078872905510243e-07,33.15433333333332,0.006674994798166511,3.2986120059162037e-06,69.90766666666669,1.0595775363585032,3.489999999999995,0.0016603823948519957
S100,12483.0,12512.984375,W,-0.20320312499999993,17.446272151367282,-43.29,35.37,78.66,3.645,19.022341258626273,781.25,777.5390625,0.0,0.03225804701500421,0.43420885111762625,62.969758899571964,0.12112994308233486,63.25345840347388,0.0010416666666666667,1,0.42370711666666666,0.0011691038889061842,7.438634830358867e-07,33.16099999999999,0.009433981132057113,5.034723587978857e-06,74.45366666666668,1.1634302251913895,3.9299999999999926,0.0020812852868069883
S100,12513.0,12542.984375,W,0.0037708333333333083,21.019836019856324,-53.64,36.44,90.08,4.4399999999999995,20.38115124203298,781.25,787.6708984375,0.0,0.05581428468591172,0.4999305507323548,62.898914159826525,0.13894548610549784,63.03967004989794,0.49166666666666664,197,0.4257562916666667,0.0017069132686218186,2.365062490522596e-06,33.16599999999999,0.010198039027186792,-1.5972226554967239e-06,77.58699999999999,0.32378130479280914,1.230000000000004,7.427085348059182e-05
S100,12543.0,12572.984375,W,0.13580208333333335,18.27291275364975,-40.0,33.38,73.38,3.59,17.639533262255704,781.25,778.4423828125,0.0,0.0,0.4998165896245231,62.904329114656626,0.13905742805429483,63.03967004989794,0.0,0,0.42856327499999997,0.001113019137021004,8.114670169995095e-07,33.169,0.011357816691601727,-5.937501610651062e-06,76.85133333333333,0.09975748370701637,0.4200000000000017,-0.00015916670984339996
S100,12573.0,12602.984375,W,0.9504895833333334,37.58428515059374,-333.88,221.23,555.11,4.085,25.166043572785945,781.25,779.2236328125,17.024228260724886,13.411554044965916,8.541605627322555,63.224120932181364,2.1825804344642945,92.31467922275417,0.05625,17,0.4010713,0.11349100219786884,-8.438300986952305e-05,33.15766666666665,0.0076084748070087615,1.4930559605726087e-06,77.11366666666666,0.21553782859525117,0.6700000000000017,0.00036899315565135695
S100,12603.0,12632.984375,W,-1.1068020833333334,260.1309831765896,-1064.23,1603.21,2667.44,-0.83,0.0,765.625,765.625,32.4336820703245,13.141425568492263,23.9891457434037,64.817632827924,4.322240883048411,93.05912099305473,0.09375,35,0.16780009166666668,0.06166634677669226,2.6606812556101494e-05,33.221333333333334,0.02578543947441817,3.284723113260378e-05,80.538,2.103245745667078,6.189999999999998,0.003748751016913793
S100,12633.0,12662.984375,W,-0.036447916666666615,29.915043882764138,-68.72,49.16,117.88,6.525,38.8021789139972,859.375,837.1419270833334,1.357031824705629,0.6543126164151201,0.4511511125874444,64.25506184369604,0.34842856197112904,65.19202405202648,0.10104166666666667,54,0.17302421666666667,0.0023500856586634376,-3.7537835703622996e-06,33.312,0.021817424229270844,3.4791676104511955e-05,81.89899999999999,0.8035311651288528,3.0,-0.0014053823256787968
S100,12663.0,12692.984375,W,0.09426041666666676,30.296244904052873,-67.78,49.85,117.63,6.62,11.963543863258943,875.0,868.7174479166666,0.40728900254883166,0.49914858064063,0.35379269471448005,64.1108547128519,0.3918115885600419,64.5832795698701,0.3229166666666667,178,0.16599045833333334,0.0022085897796853405,-3.647419609217553e-06,33.391999999999996,0.023720595832875637,3.6111120906879235e-05,74.956,3.294222821850398,10.200000000000003,-0.0059125016038687065
S100,12693.0,12722.984375,W,0.2860729166666667,34.394354475500045,-104.12,163.94,268.06,6.98,45.99358186659536,843.75,835.0830078125,13.871004022930952,4.434520591142169,3.446785281395066,64.22813982948922,1.245078596011864,77.42092740338364,0.059375,27,0.16348226666666665,0.012795958312903163,-2.2736737938568247e-06,33.45,0.019321835661585997,2.27777839566477e-05,69.698,0.3171687248137803,0.9299999999999926,-0.00042819456059965097
S100,12723.0,12752.984375,W,-0.5588124999999999,32.12692193093684,-90.81,83.27,174.07999999999998,4.1,34.61289211185945,812.5,802.8645833333334,0.5870972319149719,0.41962362227953753,0.1798798789007079,65.16028442966912,0.30420614384571354,66.09841147864296,0.21354166666666666,96,0.023331891666666667,0.04018091031588587,-5.468705194418727e-05,33.479000000000006,0.011357816691601666,1.1770836526378158e-05,71.546,0.880464271468941,2.8599999999999994,0.0015703476482062846
S100,12753.0,12782.984375,W,0.19007812499999982,41.90101144294506,-120.07,253.71,373.78,3.22,29.48470873459357,812.5,824.072265625,13.756574185942274,3.823528987065556,6.562430472515287,65.13006903056602,2.579394258420541,124.46284586172695,0.034375,13,0.04189255,0.05460094608610276,4.89771248310343e-05,33.492333333333335,0.008825468196582528,4.618056808283732e-06,73.271,0.2509495301184409,0.8499999999999943,0.00041531261266075653
S100,12783.0,12812.984375,W,2.6885572916666662,255.29910415663235,-1922.99,1902.41,3825.4,5.8149999999999995,18.029415534611406,718.75,723.3805338541666,23.600593631268342,42.37923359505415,30.002967952145998,65.29732342902241,6.172871671459539,136.89777207829206,0.065625,21,0.1362441583333333,0.06610794373384031,2.6851349514797493e-05,33.49933333333333,0.012092238098144675,8.194446667330118e-06,75.24966666666667,2.263676189053748,7.650000000000006,0.00372079962044261
S100,12813.0,12842.984375,W,-2.329020833333333,116.70576199526482,-459.59,345.87,805.46,1.58,10.559514011766183,718.75,716.5201822916666,19.841227420589572,20.756858570948904,25.366957687466353,66.35435061264864,8.775804128798075,115.84040745784694,0.10625,31,0.1371620583333333,0.013971811021538947,8.992536944590103e-06,33.525333333333336,0.020286832072936693,3.034723045443441e-05,89.56266666666667,4.103906215086088,13.599999999999994,0.007352640883420376
S100,12843.0,12872.984375,W,0.718901041666667,182.4367741218019,-1087.97,967.5,2055.4700000000003,2.795,0.0,718.75,718.75,23.71210710665545,25.753814926917734,32.95421638583091,66.47569360241332,8.554109251001242,106.78014796768171,0.12604166666666666,60,0.11655195833333334,0.03813590798652364,2.3409398928330872e-05,33.57066666666667,0.014126413400280268,1.7986115990160145e-05,94.74499999999999,2.2798841344828626,7.930000000000007,-0.003359202300130833
S100,12873.0,12902.984375,W,-2.7705781249999992,188.6462337002814,-789.74,817.69,1607.43,4.390000000000001,0.0,718.75,718.75,19.20507335744726,24.764437077187925,33.59415400273866,68.43869318735311,16.34645934570169,181.4772713041498,0.09479166666666666,41,0.1350166916666667,0.03791139126322409,-3.996908853328137e-06,33.602000000000004,0.015999999999999424,2.0416672205042798e-05,82.66166666666668,3.643976841614423,11.230000000000004,-0.006547467053891888
S100,12903.0,12932.984375,W,1.0542760416666677,258.2864431867442,-1427.15,1004.79,2431.94,0.57,0.0,718.75,718.75,22.699439772210727,29.31699584984318,32.33245339156477,67.32593220103338,14.663485656391192,174.86852203870197,0.08229166666666667,27,0.11674415833333332,0.016610565705796936,1.5492938013492302e-05,33.63066666666667,0.020154955277107537,2.8888896725503075e-05,75.40733333333334,0.8112456813786786,2.780000000000001,-0.00025250006849502976
S100,12933.0,12962.984375,W,1.4733750000000005,176.54187934767594,-913.83,742.83,1656.66,4.635,0.0,718.75,718.75,42.054098292077576,37.87783060047478,32.11014024838312,67.48062352318726,14.81186992207711,172.32527382830412,0.10104166666666667,44,0.14607419166666666,0.0735678438018604,-1.0856673734991786e-05,33.70333333333333,0.02913569784454949,4.486112328046897e-05,73.76666666666667,0.8343194165838947,2.780000000000001,-0.0012012503258600072
S100,12963.0,12992.984375,W,-0.6887708333333321,116.16839459984723,-483.2,545.14,1028.34,1.47,18.8676305507804,718.75,725.5289713541666,13.497606807872666,7.899456004367044,20.51668517718499,65.4891601300154,8.168990480175616,155.6727336433712,0.058333333333333334,22,0.09232365833333332,0.019079500924856427,1.4270978914653559e-05,33.75866666666666,0.01687865186823087,2.1736117007412202e-05,78.30600000000001,2.883361001794029,9.930000000000007,0.005182918072623174
S100,12993.0,13022.984375,N1,-0.2902187500000004,38.21909280786653,-323.36,163.71,487.07000000000005,2.83,50.71092218766351,828.125,839.7135416666666,0.08507936450096985,0.4925651659509971,0.4691479792015403,65.11926831491259,0.18159698167801314,65.62011886609167,0.24895833333333334,63,0.10989183333333334,0.0033341424068100162,5.720188183644796e-06,33.837333333333326,0.03623380864453576,6.20139057112364e-05,83.57999999999998,0.3142928570616905,1.0100000000000051,-0.000415069557039268
S100,13023.0,13052.984375,N2,0.2816874999999999,21.453252100649223,-48.09,32.05,80.14,6.345,17.383536372548825,843.75,838.3951822916666,0.03225804701500421,0.23115613710698277,0.14683805681959822,65.14150531229441,0.0848664538319312,65.62011886609167,0.05,27,0.11840910833333333,0.0022297395430701233,3.5743609956491446e-06,33.95233333333333,0.03353439362140947,5.413195912868006e-05,78.11166666666666,3.396263715058391,11.36,-0.006053578031027027
S100,13053.0,13082.984375,N2,-0.3184166666666667,25.337159044189537,-65.04,43.3,108.34,5.43,15.938691404270163,843.75,851.4322916666666,0.03225804701500421,0.06454972243679027,0.045595976308831845,65.12935603462306,0.036844474611305994,65.4446330878247,0.0020833333333333333,2,0.124087425,0.0017039019908360313,2.4682773622714156e-06,34.04233333333333,0.026291105382281084,4.010417754562106e-05,71.337,0.392480572767621,1.230000000000004,0.00048253485311817865
S100,13083.0,13112.984375,N1,0.06099999999999988,32.195807902582594,-74.42,55.0,129.42000000000002,8.370000000000001,33.24251120230785,843.75,853.857421875,0.0,0.07210109366946754,0.032258047015004204,65.12954651661036,0.0224471383481125,65.4446330878247,0.0010416666666666667,1,0.12917844166666667,0.001453799721395822,1.8921365809832369e-06,34.09266666666667,0.01611072796479244,1.4583337289316467e-05,70.93,0.18887385561091746,0.6499999999999915,-0.0003275695333033688
S100,13113.0,13142.984375,N1,0.012994791666666483,30.13462928986306,-66.32,44.81,111.13,7.27,17.408424967513525,843.75,841.0888671875,0.07210109366946754,0.15743991358257567,0.24547776191993895,65.12903234585102,0.0840378471857835,66.71581521648372,0.023958333333333335,12,0.132743125,0.001549343138034625,2.1477577440748998e-06,34.114000000000004,0.012000000000000455,4.305556723512128e-06,70.61166666666666,0.09085091572950198,0.3100000000000023,0.00010982641868121229
S100,13143.0,13172.984375,N1,0.18773958333333327,32.55640193531604,-139.33,81.06,220.39000000000001,7.485,29.553988772128065,859.375,860.6608072916666,0.0,0.16532992583014122,0.39114409953011203,65.10903571200144,0.0849626584012979,65.4446330878247,0.028125,19,0.13627621666666662,0.0014825825338652268,1.9144783839188386e-06,34.120000000000005,0.012382783747338593,4.513890113359815e-06,70.699,0.11067520047418071,0.3500000000000085,-0.000197465331343678
S100,13173.0,13202.984375,N2,-0.07488541666666675,31.182169722979573,-84.86,61.3,146.16,7.53,15.576605556593199,843.75,851.07421875,0.0,0.11110243021644485,0.42425895361467886,65.09656323478386,0.0787719479800198,65.4446330878247,0.0125,9,0.1399903666666667,0.0018458566571889804,2.642447765420938e-06,34.12133333333334,0.012310790208413747,-6.250001695419479e-07,70.487,0.05669509091035348,0.21000000000000796,-7.336807545791802e-05
S100,13203.0,13232.984375,N2,-0.018369791666666538,26.994022239476234,-64.61,43.46,108.07,7.039999999999999,36.96342813898033,859.375,855.419921875,0.0,0.16827350421923892,0.32834152908552733,65.11995561477086,0.07722735012801914,65.4446330878247,0.029166666666666667,15,0.14391826666666666,0.0011325451111937638,5.4021368820901e-07,34.107333333333344,0.012364824660660214,-6.250001695421555e-06,70.24266666666666,0.058533940771331776,0.1699999999999875,5.909723825337017e-05
S100,13233.0,13262.984375,N2,0.13357291666666665,24.572182823115245,-58.96,47.52,106.48,6.6850000000000005,15.881278327584019,828.125,825.7731119791666,0.05581428468591173,0.19174590753274387,0.45719081082191493,65.09885760113289,0.11268256633900876,66.06814663663572,0.035416666666666666,16,0.14651173333333337,0.0013565832677068632,1.5286340952240963e-06,34.09533333333334,0.015434449203719707,-1.7638893673743493e-05,70.66000000000001,0.24063804077216652,0.8200000000000074,0.00043083345020438727
S100,13263.0,13292.984375,N2,-0.252828125,24.577600813368505,-56.63,54.63,111.26,5.755000000000001,40.32859510512077,828.125,842.9931640625,0.03225804701500421,0.1592592172022985,0.48946807153843597,65.07556197264906,0.10400614042763638,66.06814663663572,0.027083333333333334,18,0.14902025,0.0017393120922268813,1.4334856319133415e-07,34.074000000000005,0.014966629547097536,-1.3194448023669085e-05,71.80199999999998,0.32367061446270734,0.9699999999999989,0.0005513195939994551
S100,13293.0,13322.984375,N2,0.1383489583333332,53.31248263220799,-217.38,588.18,805.56,6.55,18.2386373713579,859.375,860.5550130208334,0.5293429824372431,1.5645805592518685,0.6754499529120487,65.31706359633472,0.4742922647117733,74.03377607551839,0.008333333333333333,3,0.14384353333333327,0.001029647034451884,2.715677820008094e-07,34.05533333333334,0.014544949486181576,-1.3055559097102389e-05,71.61433333333335,0.3934097383418741,1.1799999999999926,-0.0006817015738122751
S100,13323.0,13352.984375,N2,1.377255208333333,96.18968965786581,-478.35,509.32,987.6700000000001,6.145,18.11753561432912,843.75,843.3024088541666,24.352686011448966,7.918892162518519,23.07279909676592,65.02644542650086,2.906519142830381,87.68694315575154,0.05520833333333333,25,0.15277705,0.023840843304733024,4.95079300965522e-06,34.028,0.020880613017820914,-2.2847228419929106e-05,70.36,0.2597306296916102,0.8599999999999994,-0.00044090289738034415
S100,13353.0,13382.984375,N2,-1.1382031250000002,28.223448589086765,-263.71,45.75,309.46,4.155,37.95215465536649,875.0,860.6852213541666,0.07880950133074055,0.4963364044565831,0.45500567571246353,64.89785947858398,0.18852965628809928,65.1766829472013,0.23854166666666668,117,0.13247621666666667,0.0010934480187563577,-7.993925779602214e-07,33.98933333333334,0.014590712418826809,-1.2291670000995597e-05,70.68033333333334,0.12916354834945576,0.46999999999999886,8.815974613708381e-05
S100,13383.0,13412.984375,N2,-0.20323437499999997,21.31948244630722,-52.71,47.03,99.74000000000001,4.615,18.23142628061961,875.0,868.701171875,0.3518906647391425,0.49826086429589156,0.11599041357658255,64.89352538740523,0.3309523543613221,65.1766829472013,0.0,0,0.13325539166666664,0.001024701869617309,4.634009503583257e-07,33.98733333333334,0.01289271973720991,1.4375003899470189e-05,69.91066666666666,0.2834776103249699,0.9699999999999989,-0.0004925695780624937
S100,13413.0,13442.984375,N2,0.14566666666666667,16.329137839346842,-36.73,32.64,69.37,4.285,16.78796970760963,843.75,847.0865885416666,0.49789487400008003,0.43480194844894615,0.29720193985833193,64.72011396056355,0.455950214754456,65.49045732013177,0.39895833333333336,189,0.133874525,0.0008745034015800067,2.8049682088129957e-07,34.004999999999995,0.01284523257866534,1.0868058503705163e-05,69.114,0.19937569226630164,0.7000000000000028,8.881946853826823e-05
S100,13443.0,13472.984375,N2,-0.19711979166666665,20.649542069837366,-46.84,31.74,78.58,4.77,37.09885743767566,859.375,866.1702473958334,0.3763632627602694,0.3630921887069453,0.4951051638428839,64.5245742668822,0.3807107532011635,65.49045732013177,0.16354166666666667,128,0.13484595,0.0008622334356193824,5.17070452764345e-08,34.024333333333324,0.018199511592958083,1.0243058334162846e-05,70.06466666666665,0.20716713596085232,0.7000000000000028,0.00022048617092181242
S100,13473.0,13502.984375,N2,0.06956770833333345,20.664084701042867,-50.9,35.9,86.8,4.9,16.56653005324898,859.375,854.4514973958334,0.3041220715025465,0.36699204313203065,0.4946545862743236,64.50851138626403,0.3209367459655188,65.49045732013177,0.103125,85,0.13595605,0.0013087939285846382,1.534302499539528e-06,34.03133333333333,0.015860503004493053,-8.402780057176693e-06,69.97000000000001,0.034351128074635126,0.12999999999999545,-4.277778938199589e-05
S100,13503.0,13532.984375,N2,-0.05275000000000005,18.862465516314845,-50.03,44.5,94.53,4.095,35.41552597901682,875.0,879.2805989583334,0.2242827108249764,0.39361218928731806,0.403853777082608,64.52434362949748,0.2514872744160534,65.49045732013177,0.053125,49,0.13755695000000004,0.0009409034740609715,1.6840716373892295e-07,34.03499999999999,0.01231530213460634,8.298613362253294e-06,69.40466666666666,0.23837971576643868,0.6999999999999886,-0.0003577084303679533
S100,13533.0,13562.984375,N2,0.07306249999999993,18.72397563387008,-67.12,43.55,110.67,3.8899999999999997,20.57309693849024,875.0,869.8893229166666,0.21137108216357317,0.45452967144315476,0.3342289400620479,64.51004977444538,0.22206177499125837,65.49045732013177,0.046875,29,0.1384319916666667,0.0011283822822654402,7.436827104174042e-07,34.035666666666664,0.011455226851624848,-5.034723587977674e-06,69.07300000000001,0.1855469392543751,0.5100000000000051,-0.00031836814191844165
S100,13563.0,13592.984375,N2,0.05521875000000003,17.810915901902643,-47.98,36.53,84.50999999999999,4.77,17.230538706826163,875.0,880.0699869791666,0.11987768650679832,0.48246599621113195,0.1595859170809115,64.48880727386693,0.18536826602004214,65.49045732013177,0.014583333333333334,12,0.13994760833333336,0.0009315780455391589,3.808336536549628e-07,34.035333333333334,0.013349989596332455,-9.444447006413324e-06,68.68299999999999,0.04282911782109766,0.12000000000000455,-1.2256947769356348e-05
S100,13593.0,13622.984375,N2,0.01978124999999992,21.862012014614493,-55.15,37.76,92.91,5.225,16.848885301670474,875.0,870.5973307291666,0.03225804701500421,0.48835284197380174,0.06441510347391793,64.47507603943774,0.1645287473979025,65.16133823057964,0.0010416666666666667,1,0.14046000000000003,0.0008956827563373064,1.061940392236423e-07,34.02666666666666,0.01105541596785142,4.097223333665553e-06,68.55533333333332,0.0560793089195015,0.1700000000000017,-9.458335899071111e-05
S100,13623.0,13652.984375,N2,-0.24722916666666664,16.991827687327103,-42.75,32.69,75.44,3.495,19.874346516420424,859.375,864.94140625,0.0,0.45242282759665825,0.08523227047636098,64.51069144240817,0.15090710962646764,64.63745044476924,0.0,0,0.140919025,0.0009127593189746064,-8.868036259775288e-08,34.02466666666666,0.01564892612574032,-6.944446328246098e-06,68.828,0.19021741946169618,0.6500000000000057,0.0003406945368637532
S100,13653.0,13682.984375,N2,0.10506770833333329,18.68639005610096,-43.6,51.29,94.89,4.105,29.018862058311928,875.0,878.9143880208334,0.032258047015004204,0.42555111326373,0.05581428468591172,64.52922680551546,0.14336857748110363,65.16133823057964,0.0020833333333333333,2,0.141153875,0.0009485144486906799,7.102768853832648e-07,34.01233333333333,0.016265163865007943,-3.57638985904646e-06,69.003,0.08210359310042264,0.29999999999999716,-5.0729180427839636e-05
S100,13683.0,13712.984375,N2,0.09641666666666664,19.991226887618037,-47.86,34.22,82.08,5.49,31.21072526397287,859.375,857.3486328125,0.0,0.38778971024899567,0.1462753717308556,64.55226420728005,0.13298764420303535,64.93843238021688,0.011458333333333333,11,0.141773025,0.0009470716574657821,1.9459640695438557e-09,33.998666666666665,0.009568466729604532,-2.0833338984737036e-06,68.89899999999999,0.09274876459195332,0.25,0.00015197920789366778
S100,13713.0,13742.984375,N2,-0.07654166666666659,19.47862352143833,-45.25,30.93,76.18,5.17,19.553127328013147,875.0,876.8961588541666,0.0,0.3781752147557473,0.1682735042192389,64.55850934407565,0.13274513510913333,64.93843238021688,0.017708333333333333,17,0.14246685833333333,0.0010157724096784085,5.887469044994835e-07,33.99733333333334,0.01263153021433078,-5.972223842291076e-06,69.268,0.0658483105326156,0.29000000000000625,6.9722241135591e-05
S100,13743.0,13772.984375,N2,0.21451041666666673,19.675348246332895,-44.14,32.56,76.7,5.404999999999999,25.409678295767424,875.0,872.7620442708334,0.0,0.40385377708260806,0.17677362623014656,64.54878337784933,0.1383754776425109,64.93843238021688,0.014583333333333334,14,0.14285108333333335,0.001070695930873414,-1.623190544485279e-07,33.98366666666667,0.009826268648657122,-2.673611836374848e-06,69.09433333333335,0.23260385971766528,0.7400000000000091,-0.00039128482836502365
S100,13773.0,13802.984375,N2,-0.09809375000000001,19.280050781495476,-40.58,28.83,69.41,4.855,19.64137249244676,890.625,887.59765625,0.0,0.37907364930475207,0.2263462809256845,64.56647614647378,0.13826192593889297,64.93843238021688,0.03333333333333333,29,0.14369415833333327,0.0011488912408334799,9.501224365566517e-07,33.973666666666674,0.014255603186895442,-5.590279294238359e-06,68.48366666666666,0.1647520021797077,0.45000000000000284,-0.00027211812937232303
S100,13803.0,13832.984375,N2,-0.15393749999999995,18.782315918622153,-41.08,27.48,68.56,4.85,16.35948459151727,890.625,888.4195963541666,0.0,0.41197356981027583,0.2870750936166354,64.56435515035311,0.1557316679549587,64.93843238021688,0.05416666666666667,49,0.14436644999999995,0.0009664741835662273,4.652114977244744e-07,33.968,0.011944315244778647,9.027780226723528e-07,67.872,0.16785708206685823,0.5,-0.0002443750662909802
S100,13833.0,13862.984375,N2,0.20680208333333325,21.590732871284438,-53.1,36.23,89.33,6.01,35.03636299091219,890.625,897.0947265625,0.0,0.39361218928731806,0.3259334884434075,64.58275015600499,0.15016309034806682,64.93843238021688,0.06875,61,0.14529487499999996,0.0009892540166079723,4.6661058664566847e-07,33.958000000000006,0.012220201853214227,-5.694445989161291e-06,67.49533333333333,0.08647671491344976,0.3299999999999983,-8.520835644757846e-05
S100,13863.0,13892.984375,N2,0.15456770833333336,22.795489153572113,-49.52,35.42,84.94,5.99,22.048659003365106,890.625,885.9781901041666,0.0,0.40461208274098787,0.3518906647391425,64.58583522617712,0.16486298482007092,64.93843238021688,0.09375,79,0.14624486666666667,0.0010325093779504197,4.108616565922476e-07,33.94266666666667,0.013148721948877925,-7.708335424353582e-06,67.20466666666667,0.08155706931686475,0.3300000000000125,-0.00013312503611247997
S100,13893.0,13922.984375,N2,-0.2790052083333335,22.022200235878785,-50.72,32.31,83.03,4.99,15.135274838725799,890.625,890.869140625,0.0,0.3817392125376811,0.3960402419753438,64.61218274918878,0.1652232391773721,64.93843238021688,0.13229166666666667,106,0.1467359,0.0010936536197535334,4.453477770583177e-07,33.940000000000005,0.011254628677423884,-6.458335085269143e-06,67.25133333333333,0.07486580587216508,0.25,0.00010319447243773428
S100,13923.0,13952.984375,N2,-0.14681770833333332,20.709523137217246,-46.13,36.5,82.63,5.045,20.237076757753123,890.625,889.6647135416666,0.0,0.2914805954090255,0.4609348516873073,64.67697409517454,0.1628554331937532,64.93843238021688,0.24895833333333334,170,0.147301675,0.0010653093773054856,9.882717524608706e-07,33.93866666666667,0.012310790208413644,1.7361115820614934e-06,67.554,0.09024411338142865,0.37000000000000455,3.055556384426115e-06
S100,13953.0,13982.984375,N2,0.12164583333333333,19.70690187365582,-45.37,32.19,77.56,5.12,15.78883216602237,875.0,878.8492838541666,0.0,0.3283415290855274,0.48594726901577384,64.69251194071222,0.17895195110888,64.93843238021688,0.30833333333333335,190,0.1486467,0.001100607972894974,7.797102809543908e-07,33.93066666666667,0.010934146311238674,-8.125002204048756e-06,67.62666666666667,0.07475887164002085,0.2600000000000051,0.00012965281294835714
S100,13983.0,14012.984375,N2,0.0896979166666667,21.698592737404553,-47.74,32.96,80.7,5.695,14.873486008161862,890.625,891.0237630208334,0.0,0.3518906647391425,0.496585563847986,64.70496293044798,0.1827489243525751,64.93843238021688,0.34375,189,0.14898829166666663,0.000966529439074261,3.4718737716671195e-07,33.917333333333325,0.010934146311238934,-8.541668983743586e-06,67.72066666666666,0.06376693674798857,0.20999999999999375,3.270834220603793e-05
S100,14013.0,14042.984375,N2,-0.0021562500000000817,20.77120520989139,-42.74,29.67,72.41,5.23,19.407151047569446,890.625,882.8287760416666,0.032258047015004204,0.3197747009614738,0.4998686893547366,64.73694128285261,0.1776466731785925,64.93843238021688,0.41458333333333336,183,0.14920177499999998,0.0008749140954259358,-1.626057298735147e-07,33.91533333333333,0.014544949486181576,1.1805558758018395e-05,67.78233333333334,0.046020526821069746,0.10999999999999943,4.9652791246959144e-06
