participant_id,window_start_time,window_end_time,sleep_stage,BVP_mean,BVP_std,BVP_min,BVP_max,BVP_range,BVP_median,SDNN,median_nni,IBI_mean,x_std,y_std,z_std,mag_mean,mag_std,mag_max,movement_density,burst_count,EDA_mean,EDA_std,EDA_trend,TEMP_mean,TEMP_std,TEMP_slope,HR_mean,HR_std,HR_range,HR_trend
S102,6850.0,6879.984375,W,0.31497395833333375,52.194697684280996,-476.38,364.07,840.45,1.99,35.24858476249252,1187.5,1184.5621744791667,3.082826358939958,0.9918674297827753,4.401925946665909,64.51838776741386,0.34990221532595006,66.06057825965497,0.06875,51,0.33936610833333336,0.019025590334159515,-1.5761060482058506e-05,33.72233333333334,0.017259457954665224,1.7673615905385478e-05,52.440666666666665,0.3174789581828834,1.1400000000000006,-0.0005618751524183902
S102,6880.0,6909.984375,W,-0.28040104166666663,27.09997673153212,-163.96,141.29,305.25,4.195,72.6376741059327,1203.125,1193.1722005208333,0.4229525846816507,0.318518434404597,0.15644432360711874,64.57792741799675,0.3317233726251841,65.33758489567853,0.0010416666666666667,1,0.3387896083333333,0.0019284125911218349,2.9587080508648184e-06,33.772,0.014922019523732405,1.9513894182370422e-05,51.28366666666667,0.2888538653983286,1.1200000000000045,-0.000421493169892896
S102,6910.0,6939.984375,W,0.18212500000000004,19.099200604044707,-53.15,51.31,104.46000000000001,3.455,97.54785107965067,1187.5,1168.1966145833333,0.49749371855330987,0.45916118417779556,0.31218734359355443,64.43229462860356,0.39821546867573093,65.33758489567853,0.014583333333333334,14,0.34279260833333336,0.0011932200711787801,1.486950273152744e-06,33.81166666666666,0.018272626764886876,2.399306206408862e-05,51.80233333333333,0.29966295882021937,1.240000000000002,0.0003776737135616626
S102,6940.0,6969.984375,W,-0.6843750000000005,102.28244251023426,-856.38,327.96,1184.34,2.79,59.116985255443076,1078.125,1109.8307291666667,20.262194089772144,12.787434789599669,10.275644949260553,64.29800434540091,4.318440559446469,114.49454135459908,0.06041666666666667,27,0.3115712583333334,0.07031490305623882,-8.33561230892261e-05,33.83833333333334,0.017143187827498015,1.7395838052257838e-05,54.21766666666666,0.4932388423021404,2.6000000000000014,0.0006982988005367838
S102,6970.0,6999.984375,W,0.3174791666666651,203.35977483114638,-1068.47,1929.67,2998.1400000000003,5.01,8.259493801522872,1078.125,1080.5826822916667,5.512290560395218,12.57743165790914,11.022672341839595,64.15394744230618,3.339970444452404,94.54099639838793,0.053125,14,0.25514895,0.06680283734366503,9.575044915105502e-05,33.919999999999995,0.017701224063136563,2.4513895538710104e-05,60.90200000000001,2.378505693357351,7.18,0.00398479274761088
S102,7000.0,7029.984375,W,0.4541718750000001,28.97742899729677,-136.0,174.15,310.15,4.279999999999999,91.28908616479507,1125.0,1110.3922526041667,0.3730504880933232,0.2499913192937351,0.34342629961010396,64.19251284311618,0.32184864925811985,65.33758489567853,0.12604166666666666,92,0.30703480833333335,0.0018366385295598838,2.6983616260746602e-06,33.946,0.014047538337137564,9.44444700641441e-06,61.28433333333332,0.8325330156950063,3.549999999999997,-0.0014018406580513937
S102,7030.0,7059.984375,W,-0.32371875,28.35825210263728,-116.59,277.11,393.70000000000005,1.495,62.90435904317865,1125.0,1142.2281901041667,0.40901303972693426,0.5038814189618427,0.4292361897571339,64.229131585644,0.3650192972440011,65.52098900352466,0.17708333333333334,122,0.309617725,0.0008745034015800127,5.318041807194554e-07,33.978666666666676,0.012310790208413748,7.708335424353213e-06,54.07133333333333,2.0475590888231343,6.6200000000000045,-0.003394375920783399
S102,7060.0,7089.984375,W,0.33897395833333344,156.36096482424938,-974.63,824.53,1799.1599999999999,2.425,46.00966951308985,1046.875,1080.8430989583333,18.625967536390334,12.173575334096823,6.510082991449153,63.67080792595857,2.191386864299548,86.21484790916237,0.052083333333333336,25,0.22081096666666664,0.10057492282836822,-0.0001059497483587642,33.998666666666665,0.0170749979664876,1.4791670679163957e-05,52.254333333333335,0.6705355239574478,2.280000000000001,0.0010954516860491772
S102,7090.0,7119.984375,W,-0.1689374999999996,54.905252329356074,-403.25,530.45,933.7,1.125,0.0,1046.875,1046.875,0.6160813311545986,0.37196544184985186,0.4121513151710452,63.04077471732678,0.36126819112876685,64.8459713474939,0.051041666666666666,46,0.23303268333333332,0.0058969742580176005,9.817255701295493e-06,33.97833333333334,0.014395215254459774,-1.038194726072764e-05,55.03133333333333,0.507613588820823,2.299999999999997,0.0008365280047005222
S102,7120.0,7149.984375,W,-0.49082812499999984,87.1114331922268,-485.21,474.68,959.89,0.77,0.0,1046.875,1046.875,2.0141685629559407,7.494242509415515,7.082283929617777,62.92648956775211,0.9701987835417923,74.06078584514209,0.04375,32,0.2284427666666667,0.02788673642275522,-2.6677351420722494e-05,33.96666666666667,0.014681810363696382,-3.5416676274061746e-06,59.812,1.6349523948217366,5.719999999999999,0.002921250792439993
S102,7150.0,7179.984375,W,0.7085729166666671,128.73015612466295,-691.11,435.68,1126.79,2.785,64.72301298712588,1046.875,1074.0152994791667,6.960397569937886,9.313911852334417,2.178489378496536,64.39388476006353,1.1768165423392476,72.84229540589725,0.035416666666666666,14,0.25441245,0.0292331452843201,4.1809767418014165e-05,33.99966666666667,0.013535960336164585,1.6423615566301537e-05,67.79266666666666,4.119134968520561,13.549999999999997,0.007272640861718982
S102,7180.0,7209.984375,W,-0.05048958333333336,23.255154945326456,-58.1,113.61,171.71,0.96,61.391015011182965,1156.25,1152.3193359375,0.5163935770213345,0.3326800238425639,0.3954480032366947,64.63944670418195,0.4085704066891156,70.15696686716153,0.014583333333333334,8,0.28063825833333333,0.03185840032458625,-1.567776705668595e-05,34.047666666666665,0.0189179514982168,2.232639494531073e-05,80.931,1.6836435687718065,6.549999999999997,0.000714271027091749
S102,7210.0,7239.984375,W,1.4871927083333338,137.58730153821256,-795.16,599.78,1394.94,0.73,5.813418408100907,1109.375,1110.107421875,8.187679639144651,18.846140556859083,6.307855053285854,62.74690228214906,1.9804260470342525,78.65112840894274,0.08020833333333334,20,0.10217060833333333,0.03324571955136877,-2.2442467242422758e-05,33.974666666666664,0.06666999991667132,-0.00010368058368071481,73.70633333333333,3.920626211319932,13.889999999999986,-0.006791772675719583
S102,7240.0,7269.984375,W,-1.5755468750000003,39.52020278067823,-368.04,131.11,499.15000000000003,0.865,62.77165134275487,1109.375,1110.3434244791667,0.6661423719612963,0.5201568523452006,0.340672779523597,62.51169712778698,0.3739057864781002,63.92182725798755,0.065625,51,0.06461969999999999,0.0018026070731027319,-2.5477190070852316e-06,33.896666666666654,0.01398411797560116,-8.888891300154144e-06,57.86366666666666,2.302413926488651,7.699999999999996,-0.0032123967047517094
S102,7270.0,7299.984375,W,-0.10559374999999976,82.82865503469071,-402.87,699.11,1101.98,2.605,38.009905877814596,1093.75,1090.0960286458333,0.9743671156405406,0.8632545009053434,0.6972042383692171,62.5567700471985,0.3998703063864272,63.75735251718032,0.06979166666666667,51,0.07974481666666668,0.025649529181833382,3.516509287247528e-05,33.873999999999995,0.01993322185030072,-1.3888892656491974e-05,56.707333333333324,0.22532840231291054,0.7700000000000031,-0.00020055560995974685
S102,7300.0,7329.984375,W,0.08007291666666679,64.51287370955906,-353.35,438.02,791.37,2.145,69.95973562456254,1109.375,1109.2366536458333,0.8452012981384968,0.4894547703539339,0.48689421050390624,62.48009295347218,0.40756536343962135,63.51377803280167,0.15520833333333334,122,0.1458482083333333,0.018492790924617013,2.677863682146181e-05,33.86333333333334,0.0179505493571132,-1.1666669831451305e-05,57.11433333333333,0.312481288328687,1.0399999999999991,0.00038496538220632196
S102,7330.0,7359.984375,W,-0.29379687499999996,43.834097760409726,-260.33,150.07,410.4,2.04,0.0,1046.875,1046.875,0.792077059198367,0.3636237371545238,0.3637192140465866,62.47175477731826,0.3056087519664992,63.33245613427605,0.11458333333333333,90,0.1553479333333333,0.001561699334770366,-9.834989647078314e-07,33.851666666666674,0.016947631758512955,1.0034724944313383e-05,58.292666666666676,0.3026211419507156,1.0399999999999991,-0.0001640972667364555
S102,7360.0,7389.984375,W,0.2679322916666667,93.66165601095342,-513.63,675.85,1189.48,3.01,0.0,1046.875,1046.875,12.503275569089773,33.63716282437126,16.05461297799682,63.71516377605047,2.9240006824669846,88.30062287436029,0.058333333333333334,24,0.15756810833333335,0.04498686663846013,3.665589861542388e-05,33.83200000000001,0.09737898472805451,-8.86805796117022e-05,58.70666666666667,1.147772722372431,3.3399999999999963,0.001860139393483993
S102,7390.0,7419.984375,W,1.7401875000000009,169.64122020816416,-939.2,1189.86,2129.06,0.845,0.0,1046.875,1046.875,26.4250561730718,14.346913647422474,17.46007350118168,64.52278289118189,3.7214284413477894,104.90948479522717,0.04895833333333333,19,0.1442364833333333,0.05492353900302118,-4.10799152235013e-05,33.626666666666665,0.10418999738725258,0.00010861114057376809,61.48366666666666,1.0604856853767002,3.3800000000000026,0.0016179518277864115
S102,7420.0,7449.984375,N1,-2.4052864583333315,296.08495309011613,-2147.66,2205.88,4353.54,9.850000000000001,0.0,1046.875,1046.875,5.745196891873149,6.117151912944591,22.418634105692757,64.92678244534322,2.4639916047757757,101.2916580968048,0.03229166666666667,15,0.17716524166666664,0.026101155790180325,-4.1486522321647755e-05,33.93633333333333,0.34855399709211354,0.0003473264831072275,67.19866666666667,1.605747454890989,5.719999999999999,0.002014444990897623
S102,7450.0,7479.984375,N1,2.839197916666666,109.39355070104298,-479.38,480.35,959.73,6.385,13.196688455639315,1046.875,1054.1341145833333,0.7266437006596378,0.7569061375373215,1.1977336816764494,64.84997810457853,0.4438541453584819,70.18546858146635,0.059375,40,0.15467545000000002,0.002078658533165075,1.4600481391189005e-07,33.95433333333333,0.0818813504746695,-0.00014635420636778719,68.72033333333333,0.5844112897228765,1.8300000000000125,-0.00038489593774303595
S102,7480.0,7509.984375,N1,-3.72690625,141.10965430152316,-507.37,477.84,985.21,0.18,0.0,1078.125,1078.125,0.5315960882490265,0.49260041101338464,0.5428422739387565,64.75555840686803,0.38991077787377965,66.10597552415364,0.3416666666666667,143,0.154376525,0.0014222609814569865,2.074675693000129e-06,33.69133333333333,0.060428102365997875,-0.000102013916561934,64.559,1.8311769439352386,5.900000000000006,-0.0023532298050211045
S102,7510.0,7539.984375,N1,1.6599010416666666,132.17210905963276,-619.98,471.48,1091.46,7.67,0.0,1078.125,1078.125,0.5785809013223648,0.425,0.9680216796240785,64.59221766547302,0.33634118018370535,65.6505902486794,0.18333333333333332,99,0.15783522500000002,0.0009986118737402463,6.279904047283017e-07,33.65333333333333,0.019720265943664547,3.062500830756395e-05,63.603,0.29801733730327384,1.1599999999999966,-0.00014288198320366334
S102,7540.0,7569.984375,N1,-0.24791666666666715,143.09709978510998,-650.98,702.01,1352.99,0.255,0.0,1078.125,1078.125,0.5580495236386582,0.2279798815441593,0.8226390618258208,64.64147313229773,0.34422805390855443,66.94027188471824,0.09791666666666667,63,0.1613893916666667,0.0017960552436559142,2.5580812060767237e-06,33.686,0.022449944320644122,1.722222689405019e-05,62.523,0.8766875155949243,3.1200000000000045,-0.000602604330133553
S102,7570.0,7599.984375,N2,-0.026656250000000447,68.06412453193315,-349.29,270.59,619.88,4.79,7.592926078371466,1062.5,1068.4733072916667,0.9452365958966157,0.5104368618453761,1.032787154042669,64.62206855878001,0.37876578207295625,67.48333127521195,0.06458333333333334,46,0.15950017499999997,0.010989753803477205,-1.3239100596544217e-05,33.798,0.043081318457077244,7.180557503406687e-05,61.57899999999999,1.2137142717020892,3.980000000000004,0.0018589935598398314
S102,7600.0,7629.984375,N1,-0.014062499999999763,49.91162198447466,-277.96,200.7,478.65999999999997,1.62,0.0,1062.5,1062.5,0.4373958209295863,0.24942425021882342,0.5016368606178732,64.5221195341105,0.34798107125940353,67.53517601961218,0.06354166666666666,40,0.13862185833333332,0.0052641528034683685,-7.234138030093866e-06,34.083666666666666,0.07795226459542769,0.00013038197981282015,64.85966666666667,0.5908890664827782,2.289999999999999,0.00011496530896411217
S102,7630.0,7659.984375,N2,-0.1955104166666669,46.8398712308966,-245.14,234.0,479.14,3.16,89.03886656225318,1000.0,983.4798177083334,0.3128886472142375,0.2745241305675858,0.36499976217648267,64.53422061494935,0.2661352182249482,65.93178292750773,0.06041666666666667,40,0.13604955000000002,0.0015704953191588993,-2.546432982430832e-07,34.419999999999995,0.06678323142825618,0.00011381947531995375,67.343,0.6163016036541414,2.0200000000000102,0.00037225704542562867
S102,7660.0,7689.984375,N2,0.19019791666666658,30.07079664035905,-131.52,155.75,287.27,4.665,57.97085539132552,1031.25,1056.6731770833333,0.5675611429984145,0.16372402253657084,0.539092440794918,64.31428546564158,0.42668494696337056,66.0,0.09895833333333333,64,0.1373198416666667,0.0020246133046248325,1.6793700302110563e-06,34.61066666666667,0.0494592986426427,8.125002204047683e-05,66.14666666666668,0.3618962405011815,1.5600000000000023,-0.00030388897132404804
S102,7690.0,7719.984375,N2,0.46723437500000004,76.60123992079635,-409.26,507.33,916.5899999999999,5.405,71.13262925277736,1031.25,1062.8011067708333,1.5307237616157265,1.5937037030312617,1.4723047261342412,64.43602828506761,0.4855500447616283,66.79071791798619,0.18020833333333333,91,0.119046175,0.027633095986715674,-4.067355769139476e-05,34.74366666666666,0.038339129996505635,5.684029319669497e-05,61.56366666666666,1.749905679997894,5.200000000000003,-0.0030987161183583236
S102,7720.0,7749.984375,N2,-0.5625729166666666,42.1914562582592,-137.47,125.43,262.9,6.825,97.71708683097303,1015.625,957.0882161458334,0.5517874600257482,0.48255032660680414,0.7142453950674096,64.60261586023799,0.40944964834057523,67.05221845696084,0.190625,108,0.08694974999999999,0.005432211037337069,-2.2387987843963728e-06,35.094,0.11029052543169729,0.00019555560860340818,58.88666666666666,0.3785704103011166,1.2800000000000011,-0.0006077084981848146
S102,7750.0,7779.984375,N2,0.4823958333333337,45.852453648786884,-323.08,123.46,446.53999999999996,9.045,62.92437272531918,984.375,1005.3059895833334,0.8079896176450674,0.41270906949286523,1.1042531412678889,64.53577287867759,0.384136197730257,66.64833081180653,0.24270833333333333,126,0.08493237499999999,0.010246750664692442,-7.127789910967318e-06,35.32266666666667,0.02568181371234405,3.416667593497146e-05,59.34533333333333,1.0638036577405734,2.6799999999999997,0.0017818754833646606
S102,7780.0,7809.984375,N2,-0.025812499999999853,43.883764138515325,-107.8,65.95,173.75,9.055,59.62599856262236,1046.875,1049.0234375,0.8147697996298642,0.33476256096257573,0.7927890891848572,64.52513335682349,0.37897706722242946,66.34003316248794,0.33541666666666664,163,0.07588054166666668,0.0038249342955050288,3.1397723360927544e-06,35.34633333333333,0.026010681566532377,3.864584381668994e-05,61.11466666666666,0.21768070398840808,0.6899999999999977,2.6041673730923203e-05
S102,7810.0,7839.984375,N2,-0.190578125,42.976889883899865,-128.87,104.52,233.39,10.27,73.80921818630388,968.75,1013.8509114583334,0.24393467007354422,0.4968258623501801,0.545801525790791,64.55569009902361,0.36136432054016193,65.68104749469211,0.25833333333333336,138,0.08134607499999999,0.0010842069310675866,2.737429127991837e-07,35.40466666666666,0.016275407487644417,-1.0694447345498873e-05,60.05,1.1226931905021962,3.030000000000001,-0.0018797921765929303
S102,7840.0,7869.984375,N2,-0.5399270833333334,43.55191989279979,-100.6,78.16,178.76,8.47,72.09929653320708,1062.5,1048.2014973958333,0.5057825345167843,0.5258415460927581,0.7669270391199762,64.6512220342749,0.3704022249169885,65.68104749469211,0.030208333333333334,15,0.08440910833333334,0.003797536389546592,1.3198734049135758e-06,35.412,0.02329520694620924,3.4513898251384094e-05,57.748000000000005,0.11252851490474171,0.5,-0.0001108333633988077
S102,7870.0,7899.984375,N2,0.30503645833333337,47.803636614177556,-180.52,213.01,393.53,6.69,38.62047729432335,1109.375,1086.0107421875,1.1573807346463632,0.619125166846109,1.6482310461817002,64.5361050531006,0.43957696538277796,66.40030120413611,0.20729166666666668,100,0.09806104166666667,0.011182039179264094,1.3702275201355032e-05,35.404666666666664,0.03323986896618063,-3.930556621787161e-05,57.75566666666667,0.07671085682975735,0.3299999999999983,-1.60069487866071e-05
S102,7900.0,7929.984375,N2,-0.21806770833333305,38.410934602629744,-97.2,82.79,179.99,4.605,44.72070958295641,1093.75,1083.4716796875,0.8848037093992467,0.316500436084481,1.012225078416357,64.53120867333227,0.37939490267957643,66.27216610312357,0.11666666666666667,70,0.08771816666666667,0.007911159952174453,-1.2775016052250446e-05,35.337,0.016155494421402804,-1.0451391724009521e-05,58.01133333333333,0.12553175782335782,0.4200000000000017,-9.347224757819115e-05
S102,7930.0,7959.984375,N2,0.22807291666666682,45.7897398298154,-146.93,278.02,424.95,5.41,89.02140630443469,1078.125,1047.1842447916667,1.0550720749471731,0.6492508703947445,1.4852734853853984,64.48802948935715,0.3836373024137811,66.30987860040162,0.14583333333333334,78,0.0861811,0.010070965441472497,1.197780012418623e-05,35.33400000000001,0.019765289440497453,-1.923611632924246e-05,57.72366666666667,0.17958254060149922,0.6000000000000014,-0.0002972570250805743
S102,7960.0,7989.984375,N2,-0.0983750000000001,39.64063453212341,-104.65,86.24,190.89,7.705,72.7062568258728,1062.5,1041.8619791666667,0.6228818273423404,0.5885739297941537,0.8298860991124022,64.44739270439476,0.37113376590459346,66.82065548915246,0.109375,60,0.08625595833333334,0.004227229688570347,-6.435929914260502e-06,35.27666666666667,0.02494438257849247,-3.819445480535217e-05,57.85133333333333,0.16682792199016241,0.5700000000000003,0.00028333341019244065
S102,7990.0,8019.984375,N2,0.7937760416666664,41.029427606925324,-104.55,91.82,196.37,8.56,57.32444923436859,1093.75,1093.6279296875,0.705604424707404,0.5681802320053618,0.9035784376884806,64.51573048967546,0.4241395802810948,65.88626564011653,0.265625,139,0.08342714166666668,0.0021681089967059376,-2.397492186819713e-06,35.263333333333335,0.015776212754933273,3.888889943818089e-06,58.723666666666674,0.2804458751504266,0.8999999999999986,0.0004023264980269356
S102,8020.0,8049.984375,W,-0.17713020833333282,89.44159033299636,-733.81,428.88,1162.69,5.71,49.408698513315485,1093.75,1089.599609375,6.363868191546318,5.9457485650054105,23.012898307215973,64.60790566450972,1.7147596466604462,88.54942122905152,0.023958333333333335,11,0.10488179166666667,0.03394259972387104,4.8644540322412176e-05,35.198,0.1250706467028407,-0.00017347226927958863,58.74166666666667,0.10263473529409477,0.45000000000000284,-5.496529268806633e-05
S102,8050.0,8079.984375,W,-0.41238020833333283,152.8085969600779,-838.7,1189.97,2028.67,0.035,0.0,1125.0,1125.0,9.960472606253708,2.804284103224426,15.87490974247089,64.05870234306781,2.2904575501208546,107.0420478129973,0.01875,6,0.14798296666666666,0.014009695463578864,2.1055910659697984e-05,34.69466666666666,0.06275525653060736,-7.916668814200671e-05,59.17366666666667,2.318700042888016,7.430000000000007,0.003376216193635034
S102,8080.0,8109.984375,N1,0.7019218750000003,146.88453358386698,-639.6,536.83,1176.43,6.245,0.0,1125.0,1125.0,0.39508701573197774,0.2798499101701164,0.45613107278013365,63.97905569360435,0.4072458978780241,66.64082832618455,0.053125,37,0.17514807500000001,0.0056525163204283035,1.0049855807795087e-05,34.661666666666655,0.01916304313573921,2.4479173307067052e-05,74.33399999999999,6.41967995048559,20.89999999999999,0.01154180868647154
S102,8110.0,8139.984375,W,0.8167135416666661,126.28771432551852,-641.0,429.76,1070.76,2.92,0.0,1125.0,1125.0,8.865387742585705,15.514476291817749,50.996670472743176,64.123522697738,3.8917491996119806,131.88631468048533,0.034375,14,0.19147925833333332,0.006531113623132267,6.7358718359027344e-06,34.71333333333334,0.04407065034943623,-2.3680561979319556e-05,96.53766666666667,4.911455102331917,16.22,0.008629342618636779
S102,8140.0,8169.984375,W,-1.221317708333333,167.40810529114142,-616.41,1616.85,2233.2599999999998,3.565,53.13313739761225,1031.25,1072.265625,6.684744288796486,17.457597438746642,12.606263427525489,64.67311882938333,1.7033034219217928,83.09632964216891,0.023958333333333335,10,0.20271888333333335,0.0049765371514459925,6.018500764567259e-06,34.830666666666666,0.062339571880325274,9.826391554468137e-05,106.879,1.6694836527102224,6.030000000000001,0.0027151049031860094
S102,8170.0,8199.984375,N1,-0.5807239583333338,106.75897973085824,-277.05,247.18,524.23,17.09,41.723085194865426,1109.375,1098.9501953125,0.3475344082685275,0.5991313156006229,0.41393767772657114,64.75308928218116,0.3094539500636662,65.83312236253116,0.325,126,0.20883501666666668,0.0016232858085959182,2.4760037098534436e-06,34.87833333333333,0.017336538165260613,-1.3576392571721013e-05,93.92066666666666,7.304722186518951,24.629999999999995,-0.013169934128128832
S102,8200.0,8229.984375,N1,-0.39458854166666707,123.6855908827629,-259.57,273.75,533.3199999999999,25.950000000000003,50.65707094841335,1046.875,1032.3811848958333,0.47930138504737635,0.4275607088148094,0.5818396053801158,64.68719277626704,0.28026605110035796,65.83312236253116,0.22604166666666667,108,0.21373419166666666,0.002058449992493674,3.142998465440115e-06,34.85366666666667,0.018345450541088004,-1.9062505171035305e-05,67.05266666666667,8.008285681439913,24.93,-0.01441160113161923
S102,8230.0,8259.984375,N2,0.8628958333333336,144.37376805011758,-347.08,247.21,594.29,28.225,0.0,953.125,953.125,0.6777208537115821,0.8335409897522869,0.7567685033802167,64.76257006258174,0.4755896927578632,70.94363960215179,0.025,15,0.2192311333333333,0.0016450708137409282,2.3816121911925506e-06,34.83,0.008944271909999498,-4.0277788703839935e-06,56.474,0.413703597599377,1.3000000000000043,0.0007127085266678958
S102,8260.0,8289.984375,N1,-0.06438541666666685,128.5755045555164,-333.91,268.3,602.21,20.895,83.4566788968876,1125.0,1059.5621744791667,0.3553885173495184,0.4131308307707539,0.5005628342592633,64.71950634080167,0.30632064290045125,66.10597552415364,0.2947916666666667,172,0.22357554166666666,0.0015762593213884163,1.898161322200868e-06,34.81433333333334,0.013585122581542661,-1.3159725792025098e-05,57.05966666666667,0.36762737777386667,1.0500000000000043,-0.0005407987578121643
S102,8290.0,8319.984375,N2,0.17773437500000083,120.27315765634226,-290.91,241.92,532.83,24.705,64.89512694715785,984.375,1026.3427734375,0.4930066485916346,0.6450129197672452,0.5073836330053095,64.71962202762428,0.31075113534432325,66.49060083951716,0.27291666666666664,136,0.22687400833333327,0.0013591205888112239,1.6262732276131853e-06,34.79,0.01788854381999767,-2.2083339323821674e-05,56.593333333333334,0.22237106126672335,0.75,0.00037222232319398906
S102,8320.0,8349.984375,N2,-0.15205208333333337,120.0398724498161,-278.16,200.39,478.55,26.835,20.65299340381892,1093.75,1094.5068359375,0.38423806277995015,0.5588529531673684,0.5949877449718328,64.68696485194442,0.31244185054941925,66.55073252789934,0.17291666666666666,84,0.23085496666666666,0.0014672846005083229,2.179882101747519e-06,34.744666666666674,0.02061283311165485,-2.4861117855122784e-05,57.10366666666667,0.33898361153437656,0.8699999999999974,0.0005140626394484161
S102,8350.0,8379.984375,N2,0.6273906249999999,125.7866232024723,-274.91,243.16,518.07,28.975,59.73667393777736,1093.75,1061.7513020833333,0.41494958696475676,0.48419015290138506,0.4962259912328253,65.04319720163342,0.365430507883749,65.66582063752801,0.00625,5,0.23445237499999996,0.0015192666600616935,2.1363905534913675e-06,34.71666666666666,0.009428090415818758,-4.305556723511709e-06,57.766,0.20130573762314882,0.6199999999999974,-0.00015194448566202456
S102,8380.0,8409.984375,N1,-0.6808281249999999,115.71593589247101,-257.17,209.77,466.94000000000005,27.9,42.873910605254984,1093.75,1075.5777994791667,0.36234281793397444,0.6389247423514673,0.7783418093756895,64.90367562582601,0.39709183349169386,67.74953874381728,0.28125,125,0.23785747500000004,0.0013185618678602103,1.4880505338678784e-06,34.68166666666666,0.017716909687892527,-1.795139375851749e-05,57.74333333333333,0.05236623169774779,0.1599999999999966,4.763890181176712e-05
S102,8410.0,8439.984375,N1,0.4259739583333333,131.55673324530525,-311.42,237.72,549.14,31.34,38.6090076950004,1109.375,1098.2747395833333,0.37499421291830926,0.6375740357336289,0.5820074216785288,64.88206741106886,0.3500525658370534,67.5721836261046,0.22604166666666667,96,0.24081375833333335,0.0014462650575178826,1.9844221962950733e-06,34.65466666666666,0.009213516640722322,-1.6666671187787013e-06,57.317,0.34779447954215714,1.2399999999999949,-0.0005914932160083592
S102,8440.0,8469.984375,N2,-0.3374947916666674,134.9491239374467,-453.02,256.15,709.17,30.16,96.25508343151974,1218.75,1161.1490885416667,0.7128463765757824,0.9222345108786353,0.8110022252589694,64.67890135745935,0.423441289171446,68.5054742338158,0.09791666666666667,51,0.24483813333333332,0.0018164562612099716,2.3267949020168532e-06,34.64533333333332,0.010873004286865332,-6.944446328244816e-06,56.654666666666664,0.0676625614518276,0.23000000000000398,-6.944446328245159e-06
S102,8470.0,8499.984375,N2,-0.27183333333333254,132.2502517005849,-286.78,196.83,483.61,28.975,87.64828990893591,1171.875,1113.2080078125,0.28798080267325693,0.6823664081199744,0.45466214371833896,64.75429902264412,0.3170958099030539,67.88961628997471,0.034375,19,0.24836022500000002,0.0012305334917729722,1.3283933725025349e-06,34.626000000000005,0.014047538337137157,-1.3611114803363223e-05,56.759,0.19706767027259114,0.7000000000000028,0.00023024311801299807
S102,8500.0,8529.984375,N2,0.322072916666667,134.0887463487137,-311.58,237.46,549.04,31.990000000000002,23.99543432676878,1171.875,1160.64453125,0.7869369404621243,0.907692219273998,0.9303191423362319,64.74337902255911,0.47001532732484275,67.54257916307313,0.04583333333333333,30,0.25007859166666674,0.0012915497247869467,8.025390631887694e-07,34.607333333333344,0.012364824660660214,-1.0000002712673393e-05,57.122,0.1422532952166671,0.4100000000000037,0.00013979170458759444
S102,8530.0,8559.984375,N2,-0.6342916666666661,117.61544211662826,-274.6,259.47,534.07,25.634999999999998,46.648824891443695,1109.375,1112.1907552083333,0.6211120389515531,0.635300535835862,0.7833970497136176,64.53632274058337,0.3616012397583995,68.044103344816,0.10625,64,0.2525445,0.0013670670246919109,1.7547036009938145e-06,34.58133333333334,0.01606929439092664,-1.048611395565252e-05,57.50233333333334,0.18442131715781127,0.519999999999996,0.00030864591705889613
S102,8560.0,8589.984375,N2,-0.006744791666666572,128.4509671182836,-288.51,204.97,493.48,32.94,17.639137159521002,1140.625,1129.0201822916667,0.859303027289171,0.8241130543735421,0.7031358023861551,64.6515109643846,0.5781118882994382,70.07139216541941,0.0875,60,0.2552879666666667,0.0012787961978186963,1.328515985383024e-06,34.54866666666667,0.015434449203720136,-1.7638893673744998e-05,57.699333333333335,0.03767698973585277,0.14999999999999858,-6.736112938399005e-06
S102,8590.0,8619.984375,W,0.6496197916666674,120.13069173088475,-279.63,205.46,485.09000000000003,31.995,83.24822172302835,1140.625,1141.9189453125,0.44173422242779525,0.540045651362508,0.577574813275783,64.75366187299389,0.3457224869432382,66.6783323126786,0.06666666666666667,47,0.25796691666666677,0.0012954403728934125,1.7007196453775093e-06,34.52666666666666,0.01903213656482584,-1.1736114294734937e-05,57.288333333333334,0.185294060587189,0.6199999999999974,-0.0002739236854176661
S102,8620.0,8649.984375,W,-2.3088645833333334,127.79747773684085,-394.22,240.73,634.95,26.12,57.086125048012924,1140.625,1097.0865885416667,0.4786580180712414,0.5709996336226689,0.7557390376681329,64.7255163368871,0.43449387033904957,67.91906948714772,0.051041666666666666,37,0.26041097500000004,0.0012241856167979558,1.3012939727902429e-06,34.49933333333333,0.01569146972791984,-1.333333695023245e-05,57.37566666666667,0.18089929672487784,0.6499999999999986,2.4687506696913915e-05
S102,8650.0,8679.984375,W,1.9307552083333337,129.7793620414185,-305.68,204.94,510.62,40.2,31.433582421627545,1078.125,1069.0022786458333,0.2514519468948734,0.38343380703193086,0.48626535251399056,64.62803026927921,0.26808614249460727,65.63535632568775,0.1,53,0.26335723333333333,0.0015800311164305926,1.5492209063641818e-06,34.476666666666674,0.010749676997732492,-9.166669153285535e-06,57.701,0.21805733191066967,0.6499999999999986,0.0002823264654748441
S102,8680.0,8709.984375,N1,0.26639583333333355,160.28119907593128,-1607.29,712.73,2320.02,3.2,0.0,1078.125,1078.125,13.7252706915221,3.7217919106314463,6.634298947593608,64.67961503038603,4.304975747635416,157.610278852618,0.014583333333333334,5,0.3292151333333333,0.03150755523149258,-4.032933559281022e-05,34.27433333333333,0.1233337837829615,-0.00016413198896809647,60.05566666666667,1.5898546753992615,5.309999999999995,0.0027130910137508186
S102,8710.0,8739.984375,N1,-0.07730208333333323,43.37559988793137,-236.21,277.49,513.7,2.38,2.119388126387764,1093.75,1093.45703125,1.299198470852959,0.6999224907484797,0.448589610767892,64.48719581441978,0.529851544629379,67.54257916307313,0.07083333333333333,43,0.3031389666666667,0.001858705427321806,-2.4134615921933483e-06,34.22966666666666,0.02073376205344546,-1.5729170933476918e-05,64.529,0.474196513413304,1.8700000000000045,0.0006212154462932532
S102,8740.0,8769.984375,N1,0.10629687500000025,42.85097189297206,-155.05,279.92,434.97,0.89,0.0,1093.75,1093.75,1.8351952548063895,0.7406711483512775,0.6721648276691927,64.50789718160536,0.594202160406584,68.60029154456998,0.08541666666666667,44,0.29900780833333335,0.001513780611008049,1.4201371039868422e-07,34.120333333333335,0.04086427399194611,-6.878474088127675e-05,65.15966666666667,0.542103823594296,2.1699999999999946,0.0002357986750755936
S102,8770.0,8799.984375,W,-0.47856770833333323,36.61933139125141,-242.74,243.22,485.96000000000004,0.155,82.0721624166806,1093.75,1045.3125,1.8164707463161147,0.6476419567682955,0.5772901254039331,64.50013631774591,0.7740036555872487,72.3118247591637,0.028125,15,0.30086519166666664,0.002592633652279197,2.8685778180820967e-06,34.02033333333333,0.026768555350550935,-3.98263996924897e-05,69.39433333333334,2.2647909150490886,8.290000000000006,0.00392635523175869
S102,8800.0,8829.984375,W,0.9319791666666668,59.03766120593052,-239.0,426.29,665.29,0.315,0.0,906.25,906.25,7.246879641606486,1.0558616149856002,1.084862702526607,64.5396395763735,0.6279318050582169,67.58698099486321,0.13541666666666666,85,0.3109522666666667,0.013442714542168263,1.8714313236304578e-05,33.931000000000004,0.05061949558552875,-7.725696540173785e-05,81.05400000000002,3.406092189004871,11.200000000000003,0.00610986276851746
S102,8830.0,8859.984375,W,-0.6803489583333333,53.82020107625616,-236.74,194.28,431.02,-3.11,0.0,906.25,906.25,1.9651079628243215,0.5348773223833667,0.4982216639096386,64.79267392926995,0.4710680368084847,65.63535632568775,0.21041666666666667,135,0.31886152500000003,0.004721537563764761,-7.944462441531695e-06,33.80499999999999,0.04863126566315053,-8.378474495028757e-05,95.87066666666666,5.930626686016316,18.5,0.010678197341090856
S102,8860.0,8889.984375,W,-0.8064427083333325,57.48140280598233,-342.4,262.61,605.01,1.065,15.474722123617006,859.375,865.2099609375,1.5204109002357078,0.9336256750120289,0.3919090008287071,64.72391125905297,0.3909108980785179,66.40030120413611,0.22604166666666667,96,0.31264941666666674,0.001280922952297375,3.9834559416926685e-07,33.70366666666666,0.032504700514779494,-3.8506954890123685e-05,110.41933333333333,2.636156208489087,8.780000000000001,0.004727709615806645
S102,8890.0,8919.984375,W,1.2472291666666666,73.81723272528113,-377.42,358.53,735.95,1.105,0.0,859.375,859.375,0.9042428683327037,0.6264488415199334,0.36436153967895984,64.66913872407677,0.29118439652738265,66.40783086353596,0.11145833333333334,69,0.31296966666666665,0.0019460624918594509,-9.765979211691356e-07,33.57266666666667,0.026699979192668484,-6.805557401680934e-06,112.25800000000001,1.7813204839855934,5.680000000000007,-0.0031086119543760732
S102,8920.0,8949.984375,W,-0.060130208333333296,132.80813615549926,-616.82,639.31,1256.13,-0.745,23.039412502606723,859.375,863.2568359375,23.208295556522216,7.063943359762347,17.411691873246806,65.00544882859518,4.185659755987744,92.13034245024816,0.06875,22,0.2888037666666667,0.0338800673613885,-3.926570509594865e-05,34.17100000000001,0.5404895928692803,0.0008903821859760707,107.25166666666668,0.5749903380830739,2.3499999999999943,-0.0009727433194290665
S102,8950.0,8979.984375,W,0.10633333333333374,60.79168586668648,-339.37,406.18,745.55,6.0,19.804229430068382,1000.0,1003.5400390625,5.558501606023575,5.59787431366561,37.502639360242036,64.89994227290701,2.3689821245994436,101.14346246792226,0.030208333333333334,11,0.21975423333333335,0.02366696597183978,-3.2063713992977976e-05,34.623000000000005,0.14161332329033582,-0.00021565978072368093,94.88033333333333,5.992583462543978,19.83,-0.010791218205083065
S102,8980.0,9009.984375,N1,-0.3574427083333333,23.633020809343073,-75.6,77.21,152.81,4.404999999999999,111.18576108437452,1187.5,1136.1409505208333,0.30388114452858045,0.501105548595636,0.46756679372814985,64.90181610264325,0.3147351987660725,65.7723346096214,0.009375,8,0.21304041666666668,0.0037458543742456885,6.445147581691511e-06,34.227,0.06398697784185009,-0.00011052086331403744,71.876,7.3789396708921995,24.250000000000007,-0.013276531379267412
S102,9010.0,9039.984375,W,0.16432812500000024,36.151312190434396,-261.8,82.86,344.66,5.595000000000001,63.097920836303906,1078.125,1103.2877604166667,0.39624978093229135,0.5478562625132618,0.3986957904635228,64.54483705294315,0.3266774285906041,65.7723346096214,0.2625,126,0.2228283083333333,0.002650825339385932,4.517392501462805e-06,34.08866666666667,0.025785439474418154,-3.8611121585048284e-05,61.78066666666667,0.5597138157626236,2.0,0.0008953474651007668
S102,9040.0,9069.984375,N1,-0.20990625000000016,27.68489228862698,-99.53,156.63,256.15999999999997,4.045,44.11296071352774,1109.375,1095.3206380208333,0.3238745872461884,0.3473860724515785,0.5107343824092911,64.73430173668412,0.3699261150594775,65.80273550544841,0.010416666666666666,9,0.23082309166666665,0.0024464795693534555,4.0351562595367374e-06,34.028999999999996,0.015132745950420816,-8.645835678665208e-06,66.01633333333334,1.604160181805074,5.019999999999996,0.0025344104097250442
S102,9070.0,9099.984375,N1,0.15198958333333337,28.192769852908352,-175.63,130.16,305.78999999999996,5.08,80.43541696257601,1062.5,1059.1552734375,0.4801620096962644,0.31539630053139317,0.39373208733505866,64.79103054042761,0.3742590582849974,66.55824516917495,0.013541666666666667,7,0.239437,0.00255480912202849,4.1536443559148045e-06,34.032333333333334,0.017829438827087544,1.2118058842788914e-05,64.23333333333333,1.1532312093514572,3.8700000000000045,-0.0019850005384658585
S102,9100.0,9129.984375,N1,-0.021208333333333614,31.360365350137382,-211.71,159.36,371.07000000000005,3.085,76.44157808157932,1265.625,1269.1243489583333,0.46240497334587566,0.5272726932580101,0.39240704622949313,64.64948078859105,0.38030746192476783,66.55824516917495,0.346875,139,0.24462462500000004,0.001878141936695685,2.9450162068728936e-06,34.043,0.02131509637166396,-1.8159727148363274e-05,63.804333333333325,1.9926175136125726,5.969999999999999,0.003225174485995681
S102,9130.0,9159.984375,N2,0.035322916666666544,29.69608826301692,-174.36,196.64,371.0,2.0549999999999997,87.79361447860722,1046.875,1076.1067708333333,0.2831168750367162,0.3368563821901289,0.5337522768621746,64.64612275034479,0.37729963427077906,67.50555532695068,0.3177083333333333,133,0.2506978666666667,0.0024469310947025542,3.990318356748696e-06,34.015333333333324,0.018208667044996643,1.1805558758018073e-05,70.21666666666667,1.112436764744655,3.6299999999999955,0.0019349310804392035
S102,9160.0,9189.984375,N2,-0.02945312499999993,97.04076597171938,-845.15,461.38,1306.53,4.52,26.478668768458807,1046.875,1046.728515625,0.31116206644965927,0.4274629918191749,0.5552777082985894,64.77987741193255,0.37746853509810385,65.88626564011653,0.009375,6,0.2586072833333334,0.0021005978878378636,3.4264223704487784e-06,34.04966666666667,0.024149994248907035,2.8437507714168578e-05,70.14966666666666,2.216427280306956,6.420000000000002,-0.003766702410672311
S102,9190.0,9219.984375,N2,0.17255208333333344,41.32899405541713,-491.25,129.63,620.88,5.455,53.269967643139644,1015.625,1020.6868489583334,0.29860606423383673,0.46826247795855785,0.5008228905594606,64.69683563934,0.36469154485972866,65.86349520030045,0.4010416666666667,173,0.2647449083333334,0.0019340597887855641,2.873395527722328e-06,34.09866666666667,0.02813459712801234,4.340278955153855e-05,66.49666666666666,1.1082217988992789,3.6499999999999915,0.0014006948244072329
S102,9220.0,9249.984375,N2,-0.5876927083333332,48.202600398164776,-523.1,159.49,682.59,5.135,44.13212307022538,1109.375,1074.3326822916667,0.3205203424598126,0.5499960542787758,0.5825552846916954,64.77706810141284,0.40721393016753027,67.90434448545984,0.015625,8,0.2704658666666667,0.0020320681047204603,3.1898858479507963e-06,34.152,0.01921804707386538,2.7222229606723538e-05,68.87533333333334,0.4819594266002992,1.5400000000000063,0.0005882640484657246
S102,9250.0,9279.984375,N2,-0.07724479166666676,40.487567471417414,-349.57,240.48,590.05,5.0,34.030621706048635,1015.625,1016.0563151041666,1.1895263230647268,0.8554335117678963,0.6155456801692301,64.61729886014827,0.8382151781895848,80.15609770940699,0.010416666666666666,7,0.2754082416666666,0.0016534402770981955,7.393702092475661e-07,34.208999999999996,0.02055075018906399,2.3368061894547166e-05,68.24000000000001,1.1363508847769388,3.8799999999999955,-0.0018081949349487106
S102,9280.0,9309.984375,N2,0.5192083333333336,62.009328649660425,-480.83,339.03,819.8599999999999,4.27,73.52113357861694,1140.625,1121.1669921875,0.5424313512633034,0.4933575708432307,0.5438697186214115,64.56990115198465,0.575317497500425,74.41102068914255,0.03125,22,0.281695125,0.0035278409321720205,5.505162300662521e-06,34.242,0.01904380914278232,2.7916674239551213e-05,63.75866666666668,0.6318055256344496,2.4100000000000037,-0.0009604863716597151
S102,9310.0,9339.984375,N2,-0.19152083333333325,18.299606894103835,-55.83,56.41,112.24,1.92,114.60196343602743,1000.0,968.8557942708334,0.3041309910584947,0.5675458483070381,0.4879527367111377,64.65868057050108,0.3488460241601179,65.86349520030045,0.29583333333333334,142,0.288889,0.0021169761335452057,2.9923028950474492e-06,34.30266666666667,0.02644911256650224,4.250001152886455e-05,61.481333333333325,0.5751853807445237,2.1200000000000045,-0.0009309724747646694
S102,9340.0,9369.984375,N2,0.053119791666666714,21.451042979359222,-110.15,61.03,171.18,3.8049999999999997,258.67496174361764,968.75,853.8411458333334,0.39170545020745146,0.5699506557588999,0.540045651362508,64.85997256997797,0.44087967561672425,67.26812023536856,0.015625,8,0.29330832500000004,0.0015291355300871728,1.9801574381937364e-06,34.363666666666674,0.021982316125061862,3.2951397827525856e-05,61.54633333333334,0.37834273116081163,1.1300000000000026,-0.0001307292021292326
S102,9370.0,9399.984375,N2,0.04797395833333341,33.417014729733694,-357.51,150.21,507.72,3.925,44.99465722285737,1046.875,1049.0885416666667,0.49984372557830514,0.7854470595357356,0.47056477407177677,64.8966033051343,0.4432882313243197,68.79680225126747,0.004166666666666667,3,0.29767365,0.00171352486923885,2.39134830494475e-06,34.42133333333333,0.024046251729162835,2.881945226222186e-05,63.165333333333336,0.5820637613030224,1.8599999999999994,0.00098465304488201
S102,9400.0,9429.984375,N2,-0.09821354166666682,36.00362158557548,-185.14,352.77,537.91,4.7,82.27054630737261,1062.5,1030.078125,0.35604739609199343,0.6735291330414412,0.4487818678718599,64.97500531229093,0.3962549698099758,66.61080993352356,0.008333333333333333,6,0.3017298916666667,0.0013407639414144573,7.811666615578025e-07,34.46366666666667,0.024149994248906268,3.4618064946305766e-05,62.946333333333335,0.20042427220496253,0.8499999999999943,6.329862828196414e-05
S102,9430.0,9459.984375,N2,0.056166666666666684,21.694448656120663,-74.03,84.73,158.76,3.9850000000000003,66.28208844792988,1046.875,1043.0582682291667,0.5513202273230645,0.5655002931893336,0.4564307100267855,64.75865349097045,0.42220418017311556,69.42621983083913,0.365625,152,0.3075683833333334,0.002159468272450935,3.2050334215042915e-06,34.518333333333324,0.02161532378249747,2.746528522821269e-05,61.78733333333333,0.8949597135563637,2.9299999999999997,-0.0015642365354374276
S102,9460.0,9489.984375,N2,0.08951041666666683,43.59016006090489,-465.19,200.07,665.26,3.725,56.505620257720715,1015.625,997.8271484375,1.3391535566408688,0.7851817730097067,1.1060317385126082,64.7202202499429,0.6302836389659424,70.83078426785913,0.016666666666666666,11,0.3170680833333333,0.0028202773728344885,4.2108457603205685e-06,34.573333333333345,0.01867856763483157,2.895834118878999e-05,59.83466666666666,0.4052384757426451,1.1799999999999997,-0.0005599307074464815
S102,9490.0,9519.984375,N2,0.16529687500000004,56.58731828642673,-477.8,217.99,695.79,9.04,36.4945722039561,1093.75,1079.5003255208333,0.6763866608165447,0.8876467014903322,0.5462853964504268,64.89721246910774,0.6814057084343075,75.29276193632427,0.0125,8,0.3219570083333333,0.0022297580679520443,3.2961360937869246e-06,34.62133333333334,0.015216949614017794,1.0902780735346585e-05,60.22,0.5868503500325553,2.0999999999999943,0.0009781252653334584
S102,9520.0,9549.984375,N2,-0.11011458333333334,29.49460194763392,-151.58,73.68,225.26000000000002,5.665,99.55827852718447,1078.125,1054.7526041666667,0.5243009565655545,0.6579763998110671,0.5570531031438765,64.85090666508178,0.426356326154676,68.62215385719105,0.014583333333333334,11,0.3252338333333333,0.002359275709242617,-1.4254257338936966e-06,34.644999999999996,0.0166833250083216,1.5381948617063818e-05,61.00833333333333,0.3728456636316008,1.1099999999999994,-0.00042197928113587305
S102,9550.0,9579.984375,N2,-0.09620312500000011,27.389477492323405,-110.26,78.42,188.68,5.525,108.89854195899915,1046.875,1065.91796875,0.3933860752068719,0.43540669845048957,0.3807074349703019,64.5241240992249,0.324218384979203,65.7723346096214,0.23645833333333333,116,0.32804104166666664,0.0023313602052444002,3.6308618790315377e-06,34.672999999999995,0.016155494421404886,1.1006947430271019e-05,62.00999999999999,0.3321947220130586,1.0499999999999972,-0.00014847226249790178
S102,9580.0,9609.984375,N2,0.2967187499999999,24.709264253768566,-70.96,76.78,147.74,4.725,123.50810804019424,1046.875,987.59765625,0.6066033835469066,0.5651788065146581,0.5578035032732305,64.52033550700119,0.4555832130378453,70.18546858146635,0.23125,123,0.33313272499999996,0.001599740963210921,1.1959623469950018e-06,34.68966666666667,0.018162843634434427,1.3923614888133866e-05,62.337999999999994,0.7185698759805241,1.9499999999999957,0.0012815975698778116
S102,9610.0,9639.984375,N2,-0.19706770833333342,99.14608519805299,-811.25,469.75,1281.0,5.279999999999999,51.656340290064264,984.375,1018.6930338541666,0.39982092345615594,0.4763094159495718,0.3724683058850631,64.51969644509991,0.3298039298780824,67.21606950722423,0.221875,102,0.33731656666666665,0.0017934711768584982,2.559287586612294e-06,34.72266666666667,0.01730767331432878,1.1736114294735157e-05,61.492666666666665,0.7949756110864168,2.8300000000000054,-0.001414305939210595
S102,9640.0,9669.984375,N2,-0.07269270833333343,24.559758264905046,-77.12,91.83,168.95,5.245,32.16234378393758,1093.75,1082.080078125,0.9883347386162016,0.6353304244752402,0.717234967262395,64.48891657356339,0.6522825318184857,72.3118247591637,0.022916666666666665,16,0.34119124166666664,0.002806492612365813,3.3942116412249468e-06,34.758,0.01681269361722593,1.527778192214328e-05,58.95766666666667,0.8111008294629932,2.950000000000003,-0.0014339240000878905
S102,9670.0,9699.984375,N2,-0.1876666666666667,35.44191005148033,-238.07,93.52,331.59,6.74,127.38416507588657,1046.875,1003.3610026041666,0.48167820055394756,0.6315455853609373,0.6529505349118466,64.8104592248014,0.4320494613136327,69.29646455628166,0.014583333333333334,10,0.3486736916666667,0.008139998759004653,2.498995903590521e-07,34.809,0.019723082923315243,2.6770840595387286e-05,58.61133333333333,1.3811413959314796,3.7900000000000063,0.0024297228813267365
S102,9700.0,9729.984375,N2,-0.017380208333333633,73.30165063768762,-467.87,467.02,934.89,2.3,18.920418900733274,1031.25,1023.7386067708334,2.5532854311759894,4.004535053943703,3.453440156558465,64.88546212889857,3.674480142723796,137.39723432442153,0.008333333333333333,2,0.328051825,0.007883936882106661,-1.0212932240921294e-05,34.84000000000001,0.01183215956619868,7.291668644659517e-06,62.76633333333334,1.4707582700392643,4.3700000000000045,0.0026394104382081265
S102,9730.0,9759.984375,N2,0.17791666666666703,62.175221130599034,-668.05,253.23,921.28,2.83,68.31559974561328,1046.875,1019.6126302083334,0.42352557765801524,0.9458975749108476,0.5350193078032065,65.00277417299985,0.43633872238456917,68.15423684555495,0.010416666666666666,9,0.32326984999999997,0.0022863179629045494,2.830694344263873e-06,34.90733333333333,0.0308688984074414,4.8333346444594075e-05,64.72900000000001,0.5217812440732864,1.460000000000008,-0.0008244793903210145
S102,9760.0,9789.984375,N1,-3.190427083333333,88.85624460871297,-656.79,493.31,1150.1,3.0599999999999996,132.76248064777585,1015.625,960.693359375,6.152573634373577,5.776711807382774,19.408767589200433,65.07061871724903,5.4090006551795335,173.23105957073633,0.027083333333333334,9,0.330005,0.015543559782109119,8.04363456044774e-06,35.03433333333332,0.0343203859082164,4.954862455203575e-05,63.932,0.9918010553197314,3.0,-0.0015707643149859786
S102,9790.0,9819.984375,N2,2.9498020833333345,130.10725176778195,-721.46,436.04,1157.5,7.595,64.29229656165558,781.25,740.3401692708334,0.3881029694946375,0.4080568792051748,0.45433745832989236,64.7084912454949,0.3773734645032181,66.79820356865893,0.17291666666666666,103,0.34263249999999995,0.0013021749882408352,1.1036396222980798e-06,34.995000000000005,0.01857417562100614,-1.4131948277979944e-05,66.99033333333334,1.649673671433907,5.550000000000004,0.002894202173991477
S102,9820.0,9849.984375,N2,0.4410468750000002,101.63650117113586,-667.7,636.79,1304.49,4.875,0.0,671.875,671.875,0.19894469848567356,0.46714888589958364,0.4567384656908882,64.80613612205983,0.3566804298692748,65.6505902486794,0.23958333333333334,147,0.34214144999999996,0.0010483263077401075,-5.543217649527361e-07,34.98933333333334,0.010934146311237751,1.4583337289315338e-06,70.78799999999998,0.7941133420362616,2.5400000000000063,0.0013283336936669096
S102,9850.0,9879.984375,N2,-0.1269375000000001,158.9971356407884,-1011.67,661.27,1672.94,6.085,93.95881145211855,671.875,691.7154947916666,0.44367541431083246,0.8316623872635391,0.6801979644436855,64.92739748114678,0.6231088656952753,70.63285354564121,0.013541666666666667,8,0.34104191666666667,0.0022155910520044635,-2.7274104620796706e-06,35.019000000000005,0.03003886371574837,4.4618067658980095e-05,69.39500000000001,0.829070764973252,3.6200000000000045,-0.0013982295459607052
S102,9880.0,9909.984375,N2,1.021453125,54.627088080064986,-547.9,357.16,905.06,4.9350000000000005,6.87129971116792,1093.75,1095.9391276041667,0.8556332683635879,0.8172132259069369,0.6525058535284485,64.68834849206745,0.4839793750806062,69.31810730249349,0.17395833333333333,89,0.336014575,0.0023226992403326046,1.7686725717970242e-06,35.130666666666656,0.03855155278613487,5.590279294237851e-05,65.06233333333333,0.6259482584225505,2.6700000000000017,-0.000845659951622166
S102,9910.0,9939.984375,N2,-1.0119270833333338,104.78315955330727,-711.41,617.58,1328.99,5.630000000000001,37.28921690411884,1015.625,1045.7600911458333,0.5583605403818894,0.45977047413779076,0.4704413929137896,64.63713933649721,0.479376394473235,69.0941386804988,0.13333333333333333,93,0.33898165833333327,0.0013399359157302655,7.444465995135113e-07,35.17799999999999,0.01989974874213401,2.534722909810023e-05,65.79766666666667,0.3308945787138582,1.4300000000000068,8.15972443568977e-06
S102,9940.0,9969.984375,N2,-0.1681562500000001,59.171785029520215,-504.09,233.84,737.93,5.52,44.35915943317469,1062.5,1046.5006510416667,3.0648878162811912,2.4107830678018294,2.2970578158537935,64.60595765904584,0.7461188182253374,69.476614770727,0.07395833333333333,50,0.3406682749999999,0.004215675708911724,-3.5608175891974824e-06,35.19866666666667,0.02717024516308702,-2.9791674748177575e-05,65.55233333333334,0.8847473587917004,3.0899999999999963,-0.0014493406709365983
S102,9970.0,9999.984375,N2,-0.025812500000000134,48.45188918171658,-589.01,174.26,763.27,6.154999999999999,73.71884645279015,1062.5,1082.7962239583333,0.6223895135662411,0.7712695837600063,0.6219369385681763,64.66298152320898,0.4785696004434057,68.09552114493287,0.24166666666666667,137,0.3382666,0.0019773480826602075,2.757773317538335e-06,35.166999999999994,0.013453624047074838,1.0937502966988598e-05,60.086333333333336,1.2725917997884821,4.479999999999997,-0.0021690630883960194
S102,10000.0,10029.984375,N2,0.28726041666666663,18.821674324291216,-55.35,54.01,109.36,4.5649999999999995,49.057484726121444,1031.25,1031.0139973958333,0.4590477386818161,0.5091086556560287,0.49576220603284754,64.63375530861119,0.3743991273698266,67.36467917239716,0.11145833333333334,74,0.3417251083333333,0.0012473595030826378,6.96397975368378e-07,35.18999999999999,0.014142135623731487,-3.1250008477108516e-06,58.907,0.48613544066100184,2.0,0.0003635070430520405
S102,10030.0,10059.984375,N2,-0.34784374999999995,26.758868565637936,-192.89,70.99,263.88,3.04,90.92578264788287,1062.5,1087.8824869791667,0.4313544056386684,0.4377529030933623,0.5076455387921336,64.64836011586605,0.3749346555951612,69.03622237637282,0.06666666666666667,40,0.3466775666666667,0.002709480502892677,4.269165654613076e-06,35.19833333333333,0.016749792701868185,-9.375002543130592e-07,61.081333333333326,0.6575851444658876,2.729999999999997,0.0009711113745419312
S102,10060.0,10089.984375,N2,0.05150000000000009,21.706069829370307,-115.51,75.14,190.65,3.6950000000000003,44.904463337587266,1078.125,1074.4140625,0.4276863121462062,0.40422975237893277,0.5309680624419263,64.65908152677191,0.4666470267737312,69.66347680097513,0.04583333333333333,34,0.352228275,0.0019946954151887374,2.9808499839545206e-06,35.200333333333326,0.018162843634433795,7.743057655994559e-06,63.65533333333333,0.29020375983474456,1.1999999999999957,-1.770833813702784e-05
S102,10090.0,10119.984375,N2,0.058734374999999964,25.38239507415084,-242.79,111.65,354.44,4.345000000000001,80.94071388818885,1000.0,1011.1897786458334,0.2809875318507132,0.3589127461863119,0.30639700270056314,64.65570979658384,0.23189228806919546,65.60487786742691,0.042708333333333334,35,0.3568926166666666,0.002044765879766089,2.7476999641113305e-06,35.18933333333333,0.015040685563572026,-1.3888892656506655e-07,63.34666666666667,0.31650522200361164,1.2800000000000011,1.9375005255807355e-05
S102,10120.0,10149.984375,N2,-0.05757812500000001,23.128149691338002,-179.9,113.95,293.85,4.22,78.05019230327095,953.125,972.4365234375,0.4793251549487745,0.5077481262616557,0.5813060008865095,64.64933769966427,0.4943531073718011,69.59166616772443,0.06770833333333333,46,0.36058584166666663,0.0015245210941791526,1.7702771729267377e-06,35.20166666666667,0.014624940645653785,-1.493055960573177e-06,61.99066666666668,0.36822939710035224,1.1000000000000014,0.00046881957161989317
S102,10150.0,10179.984375,N2,0.24221875000000018,30.251688946894326,-372.92,125.02,497.94,3.84,74.65432650908859,1046.875,1028.5807291666667,2.014530279808147,0.8722576072086351,1.7001825371771768,64.84985341789462,0.5806347195767779,71.97916365171243,0.028125,16,0.3691356083333333,0.0028464247612746095,4.159358116145316e-06,35.23633333333334,0.033910011632096726,5.0729180427838626e-05,61.821666666666665,0.4578579352691063,1.6700000000000017,-0.0007213543623465615
S102,10180.0,10209.984375,N2,-0.42152083333333346,43.11476988418508,-439.93,186.02,625.95,3.115,42.68994982422807,984.375,991.7073567708334,0.6712052540434673,0.5876292706479335,0.638190666171865,64.76983694298116,0.45585711902301257,67.88961628997471,0.026041666666666668,19,0.37476077500000005,0.0022706154065308013,3.5309282581728288e-06,35.279333333333334,0.016110727964792182,-1.0277780565804118e-05,61.40833333333333,0.21790033399597036,0.7299999999999969,0.0001959375531514628
S102,10210.0,10239.984375,N2,1.1247499999999997,19.120799155740503,-174.01,145.7,319.71,3.08,52.87316601866529,1015.625,1044.3603515625,1.0961560836496882,0.6640500407327916,0.6692584710272009,64.77679857291062,0.8476142860379394,80.90117428072351,0.01875,14,0.37850716666666673,0.0014974768297224303,1.2112290612057979e-06,35.29866666666667,0.017650936393165582,1.9097227402677963e-05,61.398,0.2814059937764889,1.029999999999994,-0.000197569498038601
S102,10240.0,10269.984375,N2,-0.811546875,47.44834056363399,-684.87,179.44,864.31,3.48,58.275911474734514,1046.875,1024.1617838541667,4.866473914383493,1.0859138936283115,5.939150994875493,64.7469998657852,2.5872218137116634,116.62332528272378,0.010416666666666666,5,0.38194432500000003,0.0024984517444559535,3.5881938987071106e-06,35.33266666666667,0.013646326326972935,1.611111548153183e-05,61.20166666666667,0.3386550194847582,0.9500000000000028,-0.0005155904176406293
S102,10270.0,10299.984375,N2,0.0226927083333333,47.19096862957189,-281.58,267.9,549.48,6.49,46.04112167381067,1062.5,1065.1041666666667,0.6191733610562286,0.6651276180282163,1.1101796768679184,64.80934129409742,0.7774891372438142,73.79024325749306,0.03854166666666667,26,0.3878254583333334,0.0025306459284005992,2.3718537250037158e-06,35.41499999999999,0.0370360185045133,5.6631959806847004e-05,64.81366666666668,2.445895178093744,6.680000000000007,0.0038173274244052255
S102,10300.0,10329.984375,N2,-0.08611979166666665,24.570665398419038,-99.23,98.13,197.36,5.09,65.30528019004598,1015.625,1003.1575520833334,0.47660092058240927,0.4908173720523076,0.7187884953459305,64.90738775392519,0.3949872929628441,66.65583245298194,0.284375,118,0.39097455,0.0017185573011977266,2.5878075596266244e-06,35.46266666666667,0.012092238098143367,-8.263891130611579e-06,66.57033333333334,0.3488025547816725,1.0300000000000011,0.0005976043287772148
S102,10330.0,10359.984375,N2,0.2485520833333333,24.177266407192743,-138.55,57.88,196.43,4.765000000000001,67.94283239982744,1046.875,1014.1764322916666,0.9733152957446808,0.5921350478822848,0.9726283254023605,64.91139997568695,1.11651759042262,80.95677859203639,0.011458333333333333,7,0.3963965333333333,0.002168510221839463,2.920695236733735e-06,35.47333333333334,0.011642832797715713,1.8750005086265102e-06,62.57066666666666,2.4816297512365164,7.3799999999999955,-0.0037981260303076234
S102,10360.0,10389.984375,N2,-0.03083333333333336,29.021959694581085,-211.66,217.64,429.29999999999995,3.6950000000000003,65.98939192577804,937.5,925.8463541666666,0.5952931336161669,0.7528872377111551,0.8786228323901116,65.03613187175169,0.5631839487447831,70.00714249274856,0.03854166666666667,21,0.4000473166666667,0.001498989598492566,1.3440941146088697e-06,35.48533333333333,0.012840906856172311,-3.194445310993274e-06,61.65233333333334,0.23966203055321267,0.8299999999999983,0.00041878483582487996
S102,10390.0,10419.984375,N2,-0.19798437500000002,94.51794808091657,-893.31,410.53,1303.84,8.870000000000001,57.4704006276776,1031.25,1023.0224609375,0.35296210598857336,1.0742225063065638,0.8178768403871494,65.18447015104866,0.4371511489691916,70.09279563550022,0.020833333333333332,15,0.4030573833333334,0.00196450648248414,2.8230385262148703e-06,35.48733333333334,0.012092238098145509,1.0277780565804709e-05,62.31233333333333,0.12462432436014369,0.44999999999999574,0.0001192708656876262
S102,10420.0,10449.984375,N2,-0.013557291666666683,22.11697789599488,-51.82,58.63,110.45,4.825,69.18164728702158,968.75,969.1975911458334,0.4191385013731539,0.326751423953371,0.7373469709407882,65.00860354248509,0.5383296288793562,70.33491309442275,0.020833333333333332,12,0.40841550000000004,0.0021769750687594073,3.2083107661433393e-06,35.501333333333335,0.014996295838935629,6.388890621986524e-06,63.08833333333334,0.4456611817164347,1.3999999999999986,0.0007631599292426028
S102,10450.0,10479.984375,N2,0.04075000000000009,28.569296074413522,-154.88,93.21,248.08999999999997,4.88,42.42954519677969,1062.5,1033.4228515625,1.188266839391398,0.7916228058025279,1.834250480820133,64.84340804138509,1.0318552442577202,79.68061244744545,0.029166666666666667,16,0.4138377833333333,0.0022549964899578508,3.352226603794109e-06,35.51499999999999,0.01500000000000057,3.1250008477108613e-07,64.63,0.5292258497087986,1.6799999999999997,0.0004889584659718059
S102,10480.0,10509.984375,N2,0.10633333333333335,20.550920921511572,-43.91,80.96,124.86999999999999,3.2350000000000003,71.17492689709486,1046.875,1032.2184244791667,0.2861380785564899,0.39095680352466333,0.31366276731104414,64.58275228127137,0.2857436658993188,67.65352910233139,0.11666666666666667,68,0.41850238333333334,0.0018320622313999701,2.1983808046823026e-06,35.53199999999999,0.014696938456697853,7.63889096107116e-06,62.72066666666667,1.1388618099761807,3.299999999999997,-0.002033472773837015
S102,10510.0,10539.984375,N2,-0.013906250000000024,49.967060798543855,-617.26,232.05,849.31,4.77,26.11105258294799,1015.625,1006.6731770833334,0.7513868832125624,0.6868810344998293,1.3196132476085138,64.64019054242708,0.6815545750122634,75.24626236564843,0.1,70,0.42091487499999997,0.00164682575258434,-2.9080324728821144e-07,35.542,0.017587874611029754,-8.750002373589839e-06,60.75533333333333,0.5458554957332777,1.6500000000000057,0.0004624306809979062
S102,10540.0,10569.984375,N2,-0.32886458333333335,24.279219247177114,-61.5,48.5,110.0,3.625,73.06484425248983,984.375,975.9928385416666,0.4047836785109905,0.5830021381226277,0.6656763477847174,64.68987746052352,0.455251735251671,66.6783323126786,0.15520833333333334,97,0.42179011666666677,0.001520833758082122,2.0450999471299607e-06,35.568,0.01492201952373526,8.958335763438835e-06,61.525,0.25420136375191504,0.8000000000000043,0.0002840625770569047
S102,10570.0,10599.984375,N2,-0.04158333333333323,27.24259668915677,-74.47,80.59,155.06,5.48,47.280931752830035,1000.0,986.669921875,0.415047635736617,0.5921359641163506,0.8396111192672607,64.88597161878423,0.5325446018834059,72.07634840916957,0.042708333333333334,30,0.42335904999999996,0.001431432865173916,-5.683556229263343e-07,35.58333333333334,0.013984117975602853,1.055555841893546e-05,61.37233333333333,0.4540608133523774,1.3299999999999983,-0.0005821182134652278
S102,10600.0,10629.984375,N2,0.3756770833333332,27.618142160843444,-65.88,50.57,116.44999999999999,6.984999999999999,70.14981086178587,1000.0,1002.3844401041666,0.28993346638592027,0.6166068383139742,0.5455300922930119,64.94465508111207,0.3765320642186384,69.34695379034324,0.13541666666666666,53,0.42587785000000006,0.001636954859131231,1.0926782477968406e-06,35.596666666666685,0.010749676997729848,3.6111120906879547e-06,61.593666666666664,0.2317827047521495,0.740000000000002,7.253474189852992e-05
S102,10630.0,10659.984375,N2,-0.3307708333333334,22.692592273544157,-59.16,48.09,107.25,4.555,101.18894559840652,937.5,950.0651041666666,0.2804309060277692,0.2975576945690066,0.48023431780746356,64.88812359790775,0.366798231523986,68.044103344816,0.08333333333333333,46,0.42786336666666663,0.001426391665084389,1.6776736321814267e-06,35.59866666666668,0.011175369742825248,-9.79166932282509e-06,61.29766666666668,0.3189637736309391,1.0,-0.0003196181422575256
S102,10660.0,10689.984375,N2,0.17329166666666668,23.530823995664296,-77.86,63.94,141.8,4.775,97.79217428610119,953.125,916.89453125,0.4035850088581091,0.46906817904993536,0.649317717503449,64.78911819807819,0.41376899608383405,68.00735254367721,0.18333333333333332,115,0.43199414166666666,0.0018091668722362906,2.2583345969874754e-06,35.58933333333334,0.015902480589169092,5.0694458196197355e-06,60.86633333333332,0.22942657988026502,0.9200000000000017,0.0002953820245719473
S102,10690.0,10719.984375,N2,-0.12231249999999991,22.8373561381678,-51.85,38.25,90.1,5.5,55.015581962965626,1046.875,1024.6175130208333,0.6938712043772164,0.35520527857924006,0.7865624931024588,64.77928088145504,0.8422302623911999,75.59100475585703,0.052083333333333336,37,0.436146175,0.0013835969587907377,1.6421156798273781e-06,35.596666666666685,0.011925695879997566,1.8055560453447056e-06,62.03233333333334,0.6356764550898171,1.7700000000000031,0.000939479421516771
S102,10720.0,10749.984375,N2,0.0394895833333333,23.197567171066485,-53.32,65.3,118.62,3.1950000000000003,77.70235775019181,906.25,930.1839192708334,0.5353386373102751,0.6480263505766309,0.7983374380113684,64.89451221471602,0.541211062409775,70.33491309442275,0.030208333333333334,21,0.439455375,0.0016618657841038264,2.2858254898615276e-06,35.600000000000016,0.012382783747336491,-5.902779379008727e-06,63.142666666666656,0.47075778154894954,1.4299999999999997,0.0007931252151489836
S102,10750.0,10779.984375,N2,-0.18984374999999995,24.27136016259189,-85.16,75.43,160.59,4.85,49.21765132801365,921.875,920.7112630208334,1.7475177708323884,1.2248684559474132,0.936359839091729,65.00831283632124,1.3789683976287412,93.65361712181756,0.008333333333333333,6,0.44334046666666665,0.002359191340739921,1.8486819250981772e-06,35.59600000000001,0.01171893055416335,8.263891130611973e-06,64.28533333333333,0.40758421079439355,1.4799999999999969,0.00028680563335656376
S102,10780.0,10809.984375,N2,0.42382291666666655,44.469376926593824,-204.19,221.89,426.08,11.35,60.229920473926796,1031.25,1011.8001302083334,0.8910994106844771,0.6848425597151672,1.1844876815350733,64.86150656134379,1.1308035164239216,83.24061508662703,0.008333333333333333,4,0.44699097500000007,0.0016493134099906442,1.8962029883362962e-06,35.60800000000001,0.011944315244778646,7.291668644658802e-06,64.57199999999999,0.4409489766401555,1.3400000000000034,-0.0006984029672317082
S102,10810.0,10839.984375,N2,-0.1655052083333333,37.05420166311235,-84.66,75.21,159.87,7.455,50.579273205475324,1007.8125,1022.6399739583334,0.630819263108169,0.5812976010974642,0.7716148909466144,64.678126811147,0.7425432879794903,74.75961476626267,0.09270833333333334,62,0.4510259916666667,0.002008670325098316,2.786604705567691e-06,35.618,0.017587874611030133,1.527778192214084e-05,62.90733333333333,0.7063235015832963,2.519999999999996,-0.0012057642159733657
S102,10840.0,10869.984375,N2,-0.18321874999999987,46.85984040259116,-243.19,206.83,450.02,2.7649999999999997,37.85020610389827,1000.0,986.2711588541666,8.287694753765802,3.313266257023507,10.503362091938707,64.80264737617775,4.5877119975101275,157.67371372552878,0.015625,5,0.42991271666666664,0.016215142085503155,-2.505450809855365e-05,35.55433333333334,0.06941101417562587,-0.0001175347541055655,63.83633333333332,1.5035258191627066,3.8300000000000054,0.0025046187349768694
S102,10870.0,10899.984375,N1,0.6042239583333326,130.68591517021613,-936.92,471.9,1408.82,7.72,29.746218384890525,1046.875,1038.6474609375,4.0532360988799905,21.282788327497308,31.17618218989458,64.6044421113015,2.145347948661542,85.8894638474359,0.040625,14,0.4179890916666667,0.22374065600720242,-0.00014151223348313622,35.51266666666666,0.06707872654989501,9.944447142048334e-05,65.967,0.7487952546145943,2.200000000000003,0.0013066322988911422
S102,10900.0,10929.984375,N2,-0.015374999999999753,105.83011287881493,-343.54,366.15,709.69,15.93,47.78770008604609,1062.5,1086.1979166666667,1.2376052143824647,0.760114095054157,1.77159266808068,64.66733512636958,0.5639674817518565,69.17369442208505,0.0875,60,0.3237821,0.015425130103935376,-1.3908479467360969e-05,35.57533333333334,0.012578641509410772,1.0833336272065568e-05,64.47600000000001,1.638642934463352,4.529999999999994,-0.0028834035599510518
S102,10930.0,10959.984375,N1,0.39868749999999975,82.2998284111608,-237.01,186.65,423.65999999999997,23.785,51.42662306825522,1093.75,1066.2272135416667,0.8535306320985531,0.8479902455790528,1.1001060357668053,64.65845287279875,0.5042457364523604,67.4166151627327,0.09895833333333333,61,0.3079632833333334,0.002329655715563039,-3.2760451595174512e-06,35.590666666666685,0.01209223809814432,1.1319447515040254e-05,60.84166666666667,1.1248024517912267,3.229999999999997,-0.0019971185973086465
S102,10960.0,10989.984375,N1,-0.23148958333333322,81.59362529270373,-289.31,237.33,526.64,14.364999999999998,66.8045842590712,1000.0,979.8828125,1.2569662655410978,1.122137078642306,1.1772911874003626,64.60383226250987,0.41591104516406013,66.52818951391959,0.13645833333333332,80,0.30312823333333333,0.0020509482958432266,-1.1729412904029155e-06,35.60200000000001,0.012220201853214306,7.500002034505304e-06,58.90633333333333,0.16253170630850905,0.519999999999996,-9.336808088326923e-05
S102,10990.0,11019.984375,N1,-0.3608229166666658,84.62968751203864,-350.68,142.54,493.22,20.415,64.33061767275267,1046.875,1035.25390625,0.9048384601070453,0.6680901144618641,1.0965143637910084,64.63028251321819,0.44548542243687456,67.80855403265875,0.10520833333333333,65,0.30172985,0.003534207868933761,-1.6147960109581197e-06,35.59800000000002,0.014236104336040915,-2.916667457862968e-06,59.550666666666665,0.26253803957183475,0.730000000000004,0.0004079862217844569
S102,11020.0,11049.984375,N2,0.11482812500000054,73.08642361153422,-185.53,172.75,358.28,21.17,61.61667421200051,1046.875,1034.0169270833333,0.7467747491992929,0.6268168038235379,0.8963122508599705,64.64393946862988,0.4289599547525146,65.99242380758567,0.090625,54,0.297534825,0.0014844124071076053,-6.370763446930214e-07,35.60200000000001,0.015143755588799969,-2.3611117516031697e-06,59.43566666666667,0.37566548358287544,1.1000000000000014,-0.0006176043342025646
S102,11050.0,11079.984375,N2,-0.5078072916666668,65.97547006380438,-212.56,189.21,401.77,13.415,81.5391965032892,1093.75,1063.3707682291667,0.6494981703314405,0.6876767449576549,0.6759252917297888,64.64266387544107,0.4182886803134249,67.29784543356496,0.08958333333333333,56,0.29631813333333334,0.0016528488181184549,-4.395908310522033e-07,35.59800000000002,0.011075498483889163,5.55555706259642e-06,58.55233333333334,0.3428282692868576,1.0599999999999952,-0.0004587154022122942
S102,11080.0,11109.984375,N2,0.5719739583333335,57.64270389026327,-169.84,211.06,380.9,11.375,77.40245051481824,1031.25,1013.7125651041666,2.6593576592331885,2.0992100758876737,2.506647195943329,64.68813906091184,0.8029102291866056,71.40728254176881,0.03958333333333333,25,0.2944503,0.0024590244834080083,-2.8249183010303607e-06,35.592000000000006,0.011944315244778646,-6.73611293839819e-06,58.443000000000005,0.17249444435498004,0.5700000000000003,6.427085076791618e-05
S102,11110.0,11139.984375,N2,-0.6457864583333333,45.21122322874948,-120.71,103.34,224.05,10.030000000000001,74.81224435783666,1093.75,1059.1471354166667,1.610025825793556,1.288564823963294,1.283001428265205,64.63707211038157,0.5361442567064394,70.9154426059656,0.11458333333333333,54,0.291888675,0.001355304659246402,-4.6452942288667214e-07,35.58066666666668,0.013399834161496097,-8.472224520461016e-06,58.334666666666664,0.2288191911143417,0.7099999999999937,0.00033277786804954953
S102,11140.0,11169.984375,N2,0.06309374999999999,41.74333587047611,-113.9,80.17,194.07,10.985,63.768027422394965,1015.625,997.7213541666666,1.7343934558577596,1.2246700058643916,1.6508017701635167,64.72751168699638,0.4272752544690071,67.38694235532579,0.10729166666666666,64,0.2926252499999999,0.0013561872243536318,5.003907607397696e-09,35.56466666666667,0.012578641509410118,-1.2638892317409165e-05,58.275666666666666,0.1217835055425085,0.519999999999996,0.0001800347710597799
S102,11170.0,11199.984375,N2,0.5563229166666666,42.30637161700026,-102.38,70.58,172.95999999999998,12.355,137.88857294896548,1031.25,969.9137369791666,0.7476699918190289,0.6965308068783143,1.0802193827785889,64.75102792626521,0.4356594526561162,67.5721836261046,0.12291666666666666,62,0.2931803166666666,0.0015334174631811447,-3.152835056650146e-07,35.53366666666666,0.018345450541088347,-1.6145837713170735e-05,58.82166666666667,0.16840592494195541,0.6499999999999986,-3.3923620313482316e-05
S102,11200.0,11229.984375,N2,-0.3820885416666666,42.35279785944974,-95.31,85.51,180.82,10.440000000000001,79.33117688878558,1031.25,1024.1861979166667,0.8258807377918167,0.6921402745991756,1.1527744310527057,64.73832929971189,0.5251693206954192,69.6419413859206,0.07083333333333333,52,0.29374602499999997,0.0013591578916281215,-1.0483010656198609e-07,35.523666666666664,0.019058389811896347,-4.409723418436614e-06,59.451,0.1904267138122528,0.8000000000000043,0.00014940976275221664
S102,11230.0,11259.984375,N2,0.22266666666666687,40.54718230260341,-104.41,87.21,191.62,9.715,71.43555243755674,984.375,976.46484375,1.5002763055702624,1.2243886654843985,1.1950413862835694,64.6679177212345,0.6063903580308606,72.06247289678588,0.06145833333333333,40,0.2933617666666667,0.0014943459925852373,2.4879347026732665e-07,35.49933333333333,0.013646326326972403,-1.0347225029086442e-05,60.31366666666666,0.5675237635749031,1.4699999999999989,0.0009440627560934131
S102,11260.0,11289.984375,N2,-0.35908854166666665,47.66809572179447,-128.2,201.84,330.03999999999996,8.155000000000001,100.84786952673664,1046.875,1013.1917317708334,1.0320199146172844,0.7052598762552393,1.1231756040352727,64.6946865258529,0.5788223575740624,68.62943974709395,0.12395833333333334,86,0.2940555583333333,0.0017494095184558424,6.104066325972896e-07,35.47866666666667,0.014079141387962313,-4.51389011336016e-06,61.13666666666666,0.22268562793518712,0.740000000000002,0.00026798618380701535
S102,11290.0,11319.984375,N2,0.3843489583333332,43.10825162083602,-94.44,87.08,181.51999999999998,9.225,102.16161101186654,906.25,907.6822916666666,1.1890541730253035,0.8487097028561781,1.2493731066908003,64.6397616760591,0.673270967452697,72.00694410957877,0.04895833333333333,34,0.29525090000000004,0.0016500934640195399,8.432263572120135e-07,35.475,0.012845232578665525,-6.597224011831963e-07,60.24699999999999,0.43955394056550895,1.4299999999999997,-0.0007510765926314547
S102,11320.0,11349.984375,N2,0.08294791666666677,62.27213088832185,-522.5,322.52,845.02,11.59,48.772748953791215,1031.25,1027.3193359375,0.8678252472256279,0.7922804638089552,1.1067971810589328,64.61561389254429,0.5139143472463076,67.94115100585212,0.09583333333333334,61,0.2953149,0.0014284516757664609,3.301680583138182e-07,35.46066666666666,0.014360439485691113,-1.569444870183508e-05,59.793,0.14679123497902347,0.4799999999999969,-6.614585127654352e-05
S102,11350.0,11379.984375,N2,-0.10090624999999989,42.39349333564697,-116.41,87.7,204.11,9.165,113.54353754444558,906.25,892.9117838541666,0.8737863607121975,0.8523227047636097,1.3357903793260377,64.6661974954432,0.6288095739859216,69.40461079784254,0.09479166666666666,58,0.2967130333333333,0.0017325533899100764,9.591074650356645e-07,35.43666666666666,0.013984117975603644,-1.4583337289318566e-05,59.61366666666667,0.2467722746897541,0.7800000000000011,-0.0002562847917439224
S102,11380.0,11409.984375,N2,0.2031458333333334,38.52334880599988,-87.01,57.53,144.54000000000002,11.54,107.18794781511316,1015.625,990.1448567708334,1.1442787750065786,0.8335409897522871,1.2058338912403683,64.68730463343759,0.4489739348527534,68.53466276272175,0.20833333333333334,129,0.2970331833333334,0.0015136157977028266,1.8612852271279148e-08,35.42466666666667,0.014544949486182663,-1.0000002712675539e-05,59.910999999999994,0.19703383804142183,0.7299999999999969,0.0002365625641717023
S102,11410.0,11439.984375,N2,-0.8172135416666667,42.73259216355708,-115.17,131.23,246.39999999999998,5.86,78.4199850716015,1062.5,1009.0901692708334,1.0245674688686386,0.6597221308479468,1.2392554713471668,64.69380545574865,0.5420584105168522,69.83552104767315,0.07708333333333334,48,0.29727865000000003,0.0012827675656563854,4.1357780316238034e-07,35.41799999999999,0.011075498483891898,-7.500002034506266e-06,60.12333333333333,0.24293117452388743,0.8500000000000014,9.756947091185826e-05
S102,11440.0,11469.984375,N2,0.6867447916666668,39.33998241660811,-120.15,77.49,197.64,11.135000000000002,53.75579563703766,1000.0,995.4671223958334,0.749536894058962,0.7329063328341033,0.9469981813897826,64.63503359918727,0.5351541509384673,71.19691004531025,0.08958333333333333,55,0.298175275,0.0015118740190157966,7.360607465442594e-07,35.41066666666666,0.01314872194887754,2.152778361755757e-06,58.88133333333334,0.38947600125753,1.3800000000000026,-0.0005849307142281672
S102,11470.0,11499.984375,N2,-0.26065625000000003,37.80499958650975,-81.89,56.66,138.55,10.075,83.18054139479739,1000.0,1001.9449869791666,0.7568093661330222,0.9505823324853736,1.092310064057668,64.61301084174372,0.5732552933683431,72.83543093852057,0.051041666666666666,35,0.30031024166666664,0.001720594194824531,1.0713698652804508e-06,35.40866666666666,0.01257864150940831,-1.2500003390839695e-06,59.089666666666666,0.21459237845014204,0.6999999999999957,4.697917941058392e-05
S102,11500.0,11529.984375,N2,-0.3684114583333333,39.91678609186389,-115.69,99.93,215.62,8.855,93.30885197091412,968.75,947.021484375,1.277528470545982,1.202940552239479,1.2723518079776084,64.61689582306758,0.5529308493518384,67.49074010558782,0.11979166666666667,67,0.30156987500000004,0.0015489585079578537,1.8792735132577916e-07,35.40066666666665,0.012364824660659654,-6.1111127688562186e-06,59.087999999999994,0.1426043477598068,0.5499999999999972,0.00014236114972904478
S102,11530.0,11559.984375,N2,0.6740312499999999,41.37435594286059,-98.62,80.71,179.32999999999998,11.614999999999998,72.70374819226139,953.125,949.8860677083334,0.6680681882612484,0.5966340773222916,0.761030003788725,64.6816233025314,0.3417215475948792,66.97014260101288,0.12291666666666666,91,0.30318160833333335,0.0015332926296907302,1.1509814320153705e-06,35.36166666666667,0.018454147380886222,-2.8506952177446462e-05,60.101666666666674,0.37909614728837454,1.1599999999999966,0.0006423265631311206
S102,11560.0,11589.984375,N2,-0.4623124999999998,40.923583653284126,-108.36,68.4,176.76,11.149999999999999,101.97619440658865,953.125,955.9733072916666,0.8477598902974959,0.7210192137503841,0.854293054673798,64.66910794830125,0.5315250112905184,72.75987905432498,0.06458333333333334,43,0.30462245833333335,0.001561356343567095,1.0994558103992507e-06,35.34000000000001,0.010954451150103088,1.4583337289326434e-06,61.027,0.1413305817342208,0.5499999999999972,3.9236121754589544e-06
S102,11590.0,11619.984375,N2,0.26208333333333333,40.64270692358457,-116.67,161.95,278.62,9.085,74.12255729265735,1000.0,991.455078125,1.4725493854904605,1.2217626582342234,1.3120332338005858,64.76887113949812,0.7716311608662809,76.71375365604267,0.03854166666666667,21,0.3067890166666667,0.001458552844336534,6.423578131395974e-07,35.34233333333335,0.011455226851625385,-5.381945904391832e-06,60.21399999999999,0.27464643938465055,1.0300000000000011,-0.00043388900658881475
S102,11620.0,11649.984375,N2,0.28830208333333346,40.18707039729419,-166.9,83.6,250.5,12.34,73.22357574217504,1015.625,1001.0660807291666,0.6611416564780618,0.5344024115776425,0.9696702618244342,64.6965500378899,0.37243101572384874,68.76772498781678,0.08958333333333333,61,0.309137475,0.0015002458296475998,9.654761733605101e-07,35.34133333333334,0.015648926125739916,-1.2569447854123979e-05,60.28999999999999,0.22790348834539603,0.8700000000000045,0.00021763894792723096
S102,11650.0,11679.984375,N2,-0.6302708333333331,37.19283594112334,-83.42,62.29,145.71,7.779999999999999,91.70566076243367,968.75,985.2213541666666,0.6132754445054305,0.5729886318437935,0.5008835509349675,64.59669926643605,0.5597489451728428,76.28237017817419,0.04583333333333333,32,0.31081343333333333,0.001576241377102154,9.729559930978708e-07,35.335666666666675,0.009195409482756541,6.597224011848737e-07,60.12499999999999,0.3225187333060404,0.9799999999999969,-0.00021670144767291764
S102,11680.0,11709.984375,N2,0.42098437499999997,37.110905050489166,-98.98,79.03,178.01,11.885000000000002,129.7769544395602,1046.875,986.9873046875,0.6352621055189215,0.717162346750875,0.7566365804866664,64.60968680772838,0.5101427322337921,68.17624219623724,0.065625,33,0.3120303666666667,0.0015282056413396185,8.517363421593859e-07,35.332,0.010770329614269108,-5.416668136031921e-06,60.63100000000001,0.08715312195593823,0.25,0.00010239586110998811
S102,11710.0,11739.984375,N2,-0.34670312500000006,41.63866350590156,-120.58,107.3,227.88,7.975,104.6235289212619,984.375,954.2805989583334,0.6831229033209667,0.6592680271310161,0.935622541375824,64.57450950920881,0.4237884438039438,68.1248853210044,0.08333333333333333,47,0.31359940833333333,0.0015427588410367992,8.324526997755836e-07,35.321999999999996,0.01194431524477825,-2.7083340680158496e-06,60.11366666666666,0.20206407124694095,0.759999999999998,1.2048614379507495e-05
S102,11740.0,11769.984375,N2,0.11370833333333336,38.10842340035552,-102.99,99.64,202.63,10.205,76.64843902347685,984.375,970.3938802083334,1.1103599891726808,0.8683221118516766,1.3692552815460186,64.72773169413624,0.4055856653194326,69.2098258919931,0.04791666666666667,30,0.3153923250000001,0.001436247374018481,8.413185875972683e-07,35.317,0.013453624047072864,-1.0729169577139084e-05,59.80366666666667,0.2429195111325742,0.9299999999999997,0.0002632292380721685
S102,11770.0,11799.984375,N2,0.3684166666666667,38.24942371152654,-97.06,57.55,154.61,11.96,73.57705386056683,1000.0,991.3248697916666,0.5827228948841999,0.646894289835845,0.49228421668788036,64.48408837927823,0.4008481342959304,65.98484674529449,0.10729166666666666,72,0.3185304083333333,0.00481241778890098,3.3370749069756185e-06,35.29333333333334,0.013743685418725443,-1.5486115311989267e-05,60.86266666666667,0.13863461167960747,0.5600000000000023,0.00022854172866257818
S102,11800.0,11829.984375,N2,-0.11341666666666708,40.17541799711679,-190.43,138.85,329.28,10.780000000000001,61.394428714752515,1062.5,1051.5950520833333,2.5830878159541064,0.962264919885198,1.2038548471703536,64.62153208579473,2.24566416707169,108.60478810807561,0.008333333333333333,3,0.32389950833333336,0.0023344961840328364,-1.7472632777949437e-06,35.290666666666674,0.014126413400277529,-7.638890961068175e-07,60.665,0.35467120924409246,1.1000000000000014,-0.0005764932119393478
S102,11830.0,11859.984375,N2,0.012796875000000025,38.31200758574793,-92.17,60.11,152.28,10.405000000000001,52.26236155480283,1000.0,998.0224609375,0.8841191473249896,0.8143568525734486,0.963797263396486,64.67513219661105,0.5175909107448283,68.68769904429759,0.06875,48,0.32447573333333335,0.001365206454065542,9.326387078555492e-07,35.29133333333334,0.008844332774281306,-3.888889943817521e-06,60.43233333333333,0.11879066555172636,0.3999999999999986,6.677085144608552e-05
S102,11860.0,11889.984375,N2,-0.418234375,42.35315732348634,-98.98,84.52,183.5,11.3,72.06797287292736,1062.5,1046.6634114583333,0.9844075170996117,1.0070018542063366,1.3889721763221978,64.54057042746014,1.013542746044043,74.97332859090625,0.03333333333333333,20,0.32579925,0.0017394286813491387,1.3803775445902649e-06,35.27066666666666,0.00963788819653358,-3.125000847709347e-06,60.254666666666665,0.23893839280357587,0.8000000000000043,-0.00017812504831951251
S102,11890.0,11919.984375,N1,-0.014713541666666755,45.729525315084366,-167.34,99.91,267.25,10.855,98.02064042270014,1078.125,1040.7063802083333,0.809567357021981,0.7738391563694328,0.958650309897549,64.65218785193291,0.41056581897688005,66.2872536767062,0.18958333333333333,93,0.327742,0.0015976877041524794,1.080288053463559e-06,35.272,0.011944315244778647,1.736111582060877e-06,58.99133333333332,0.34265369625258013,1.3699999999999974,-0.0005758334895381642
S102,11920.0,11949.984375,N1,0.2631666666666668,40.68890148089798,-131.1,81.07,212.17,11.93,66.7716927554901,1015.625,1004.0852864583334,0.6785392999651695,0.7775823632241297,0.8716976372764431,64.72839765325513,0.5890986692195758,70.78135347674555,0.08333333333333333,48,0.32983429166666667,0.0014567877584822963,1.0852752509969711e-06,35.26533333333334,0.014313940369056533,-1.3402781413515684e-05,58.44800000000001,0.21043447119392386,0.6999999999999957,-0.0002993750812106866
S102,11950.0,11979.984375,N1,0.21530208333333345,41.70094604133195,-116.62,97.01,213.63,10.95,79.73064135764304,1015.625,991.8863932291666,1.3431345489811013,1.1858317045842646,1.049697687134253,64.74703876455443,0.36247467215227663,66.21933252457322,0.27395833333333336,146,0.33179842499999995,0.0014820877654089818,5.959035904686397e-07,35.26066666666667,0.014360439485693287,8.333335593898564e-07,59.093666666666664,0.28198680032149653,1.1500000000000057,0.000394618162602583
S102,11980.0,12009.984375,N1,-0.6667447916666667,41.15906856683027,-106.88,104.84,211.72,9.655000000000001,82.83284855002904,937.5,953.5888671875,0.9576967994737281,0.81512396807684,0.9635360360195842,64.72162579086934,0.5895874150717564,72.20803279414278,0.08333333333333333,67,0.33286581666666665,0.0012074703031775048,2.646393947046984e-07,35.25266666666666,0.015260697523014519,1.0694447345500157e-05,60.30033333333334,0.700040395659818,1.75,0.0012078128276401974
S102,12010.0,12039.984375,N1,0.3840312499999998,42.09048290462889,-126.54,102.39,228.93,12.955,105.53009854881752,953.125,930.2164713541666,0.9720435723758593,0.721179468918028,0.9757275597385437,64.72883766926361,0.5218866282887269,72.94518489934754,0.090625,61,0.3349255333333333,0.0016939701686340973,1.078120952181249e-06,35.248000000000005,0.011944315244781145,2.0833338984741467e-07,60.98766666666667,0.24138052024874632,0.8699999999999974,-0.00025954868151819633
S102,12040.0,12069.984375,N1,-0.2976041666666665,41.98320732484377,-121.84,91.67,213.51,9.08,86.33110420989667,1015.625,994.1650390625,3.654797165056952,2.6670442441024482,1.9451325357407456,64.75539125758299,0.4718436294777386,68.83313155741209,0.11458333333333333,68,0.33615295833333325,0.0014579441255630806,-3.2362747494235384e-07,35.25333333333333,0.015563490039906775,-1.3541670340081542e-05,60.373666666666665,0.36357010633744696,1.2000000000000028,-0.0003079514724260724
S102,12070.0,12099.984375,W,0.36824999999999986,62.44561209364514,-516.85,181.54,698.39,9.84,49.98827836604864,968.75,985.0341796875,2.1502056486757777,0.7199416450117483,2.78300720862593,64.69849094149214,0.6047202331034938,68.73136110975832,0.09270833333333334,51,0.3361102833333333,0.001582620654607066,-5.831763734744957e-07,35.23166666666666,0.020344259359556433,-2.1840283702332664e-05,60.169333333333334,0.20837359610938144,0.5799999999999983,0.00023513895267441217
S102,12100.0,12129.984375,W,-0.02741145833333481,240.16912610313423,-1287.08,1088.57,2375.6499999999996,2.645,39.53691320518209,984.375,974.8616536458334,28.859705470194754,26.627114853898618,9.401759898694943,64.24903292497025,5.106296917149251,112.25862995778988,0.05416666666666667,20,0.45924085,0.1374724957900458,6.490556578384488e-05,35.223,0.0402616442783955,4.8020846359822535e-05,61.093666666666664,0.9338218364453799,2.6299999999999955,0.0015232295798691343
S102,12130.0,12159.984375,W,-0.00010416666666710484,39.14911299667783,-189.39,140.74,330.13,6.955,52.81478716370168,1078.125,1060.8561197916667,1.8963572421699861,0.5511735821937889,1.8934781043353055,64.48959496388119,0.5198715173495733,71.28814768248647,0.06145833333333333,41,0.4348547916666667,0.005227447941548273,-7.81425103468182e-06,35.19166666666667,0.03327494886881499,-5.621529302715247e-05,63.91166666666666,0.642173825550545,1.8699999999999974,-0.000531354310805749
S102,12160.0,12189.984375,W,-0.27287500000000015,40.65605050636426,-187.73,164.49,352.22,5.2,61.36864405548617,1093.75,1078.0110677083333,1.2258389806973926,0.14707433282187615,0.7885657471003924,64.4537697069611,0.5392005458945018,70.24243731534378,0.15416666666666667,106,0.42456495833333335,0.002899757508240512,-3.623473422166183e-06,35.097666666666676,0.032216282977539396,-5.378473681226616e-05,61.42866666666667,1.5301845930765638,4.490000000000002,-0.0026223618224722823
S102,12190.0,12219.984375,W,0.244390625,39.409233251384066,-86.75,75.48,162.23000000000002,4.4,49.31022580136027,1031.25,1024.560546875,0.32339346519887086,0.09107288747664331,0.4090767042988393,64.43730366794092,0.2860291457829962,65.07687761409578,0.14479166666666668,110,0.42043436666666667,0.0015679381202359029,-1.4090915280738773e-06,35.017333333333326,0.024485823562942335,-3.79166769522229e-05,57.47833333333333,0.38059675364996076,1.3500000000000014,0.00019850699829291333
S102,12220.0,12249.984375,W,0.2010312499999999,40.130480749506646,-90.47,82.34,172.81,4.720000000000001,74.96867011163478,1015.625,1028.5074869791667,0.39147684895008655,0.1682735042192389,0.46323023245885936,64.47390852126124,0.32034355314334323,65.07687761409578,0.19895833333333332,135,0.41947379999999995,0.0016300719800057904,7.026742357514726e-07,34.96300000000001,0.017349351572896982,-2.2326394945310904e-05,58.25266666666666,0.27094812951723557,0.9099999999999966,0.000423819559412857
S102,12250.0,12279.984375,W,2.3631510416666672,70.02711185913178,-437.16,359.12,796.28,4.625,52.74955374080484,1046.875,1019.9544270833334,4.944771368717555,10.840324216704216,12.470697903750104,64.37071627217102,1.3016220422965599,74.85318964479737,0.042708333333333334,21,0.48368001666666666,0.18460506729755027,0.00015717305478869757,34.932,0.013012814197296767,-7.70833542435368e-06,58.43866666666667,0.11808847906925075,0.37999999999999545,9.63889150360554e-05
S102,12280.0,12309.984375,W,-3.0624895833333334,107.90561007943226,-905.4,557.03,1462.4299999999998,5.64,80.75665897959652,1062.5,1058.9029947916667,9.689792739441506,9.514056156021496,14.336492770430194,64.03018253278645,2.2863489420285337,91.44397191723465,0.04375,21,0.5015988750000001,0.017485730856693072,-2.5202898546793222e-05,34.870666666666665,0.03604934889225423,-5.916668271665462e-05,60.28433333333333,0.9720620121965241,2.8999999999999986,0.0017129518535568173
S102,12310.0,12339.984375,W,0.25651562499999975,68.92218184749774,-154.86,97.82,252.68,17.24,43.33561121015434,1031.25,1034.6516927083333,0.4999826385874701,0.12401959270615269,0.4935246936718454,64.41573543224789,0.4748986446023325,65.28399497579785,0.21041666666666667,132,0.47049491666666665,0.005366416336164716,-9.202448242851622e-06,34.841666666666676,0.013437096247163634,1.017361387088178e-05,60.78033333333333,0.26382422599568567,0.9000000000000057,-0.0004535765119293936
S102,12340.0,12369.984375,W,0.5333802083333331,66.35911129180963,-146.69,104.41,251.1,17.53,56.039145955400116,1031.25,1026.0335286458333,0.49228421668788036,0.08507936450096987,0.35166857967489157,64.45660487785766,0.4657477354419943,65.13831437794502,0.08020833333333334,60,0.4588071083333334,0.0028568947851231514,-4.270910229739093e-06,34.86866666666666,0.0164789427924099,1.166666983145249e-05,58.85566666666667,0.9578402209600976,2.8200000000000003,-0.0017007296280191046
S102,12370.0,12399.984375,W,-0.22511979166666657,64.68798807534247,-135.15,94.69,229.84,17.605,51.448410019456425,1031.25,1024.4222005208333,0.4833052703778432,0.09636964965693294,0.2934173648576376,64.4891134150915,0.4588038093403528,65.28399497579785,0.06458333333333334,48,0.45310695833333337,0.0019905222656204052,-2.396945745699269e-06,34.90999999999999,0.016329931618554755,2.3750006442601564e-05,58.384,0.27533736881626925,0.9500000000000028,0.0004084723330274328
S102,12400.0,12429.984375,N1,-0.3731145833333331,68.72765487314311,-179.51,113.28,292.78999999999996,15.469999999999999,99.21602527418143,984.375,990.8040364583334,0.5891810686004959,0.19293061504650377,0.6083583042820151,64.57007881561543,0.5587606033712136,73.63423117002037,0.028125,20,0.45071610833333337,0.001543566496763443,-9.324249491170133e-07,34.955333333333336,0.01707499796648727,2.1527783617562737e-05,58.446999999999996,0.189862230753424,0.519999999999996,-0.0002743403521973605
S102,12430.0,12459.984375,N2,0.566041666666667,65.75442625673523,-151.73,91.3,243.02999999999997,19.305,44.521492824212906,1062.5,1049.2838541666667,0.21182234678433295,0.13215215741081693,0.23198082715316515,64.77383009362738,0.20640171646113403,65.7723346096214,0.0020833333333333333,2,0.4491685833333333,0.0015416334766697461,-5.392549205878097e-07,34.99400000000001,0.01019803902718549,1.097222519862871e-05,58.22033333333332,0.24740632346180877,0.7800000000000011,-0.00037065982277013486
S102,12460.0,12489.984375,N2,-0.07860416666666646,63.88458370968682,-140.24,101.62,241.86,17.55,47.197501250396094,1062.5,1041.5690104166667,0.22683472629991105,0.1823839052353274,0.37186041054481117,64.75975144684796,0.22960301058921143,65.46754921333164,0.005208333333333333,2,0.4490725583333333,0.0016805405320701207,4.1812077314458024e-09,35.029666666666664,0.018526257642119306,1.3437503645154589e-05,57.615333333333325,0.042247945380680184,0.14999999999999858,-5.562501508925218e-05
S102,12490.0,12519.984375,N1,-0.5398125,62.69033902566123,-144.84,99.89,244.73000000000002,13.93,49.814180288103806,1062.5,1062.4104817708333,0.19328741821874143,0.1927392993138659,0.5315552636028439,64.70342289380535,0.1999562253368736,65.7723346096214,0.013541666666666667,10,0.4481119416666667,0.00131042073584423,-4.4170563197309436e-07,35.05933333333334,0.013399834161495578,1.194444768458393e-05,57.86866666666666,0.30154859567830156,0.9200000000000017,0.0005272223652404426
S102,12520.0,12549.984375,N2,0.6216302083333327,61.03112596760501,-130.85,99.83,230.68,17.84,59.26426996989097,1109.375,1089.8844401041667,0.20577597041442908,0.17399263633843817,0.5280325362844605,64.69115421379692,0.21258289381586065,65.76473218982953,0.009375,8,0.4457741416666667,0.0017578140036981255,-4.3647299166477124e-07,35.06266666666667,0.013148721948879404,-4.79166796649054e-06,57.736,0.3506051910625399,1.3000000000000043,-0.0005690279321364834
S102,12550.0,12579.984375,N2,-0.11134895833333364,61.64793331477053,-177.55,86.84,264.39,16.384999999999998,40.45994476660714,1062.5,1054.6061197916667,0.16894279110594407,0.2001274550477492,0.4947247761803189,64.69340110159656,0.17169422804108048,65.63535632568775,0.00625,5,0.444589225,0.0015844735322418653,-1.009955352092924e-06,35.04933333333334,0.010934146311237432,-2.7083340680160715e-06,56.398999999999994,0.48510720464656,1.3099999999999952,-0.0008227432787389527
S102,12580.0,12609.984375,N2,0.12326041666666677,62.09551204843377,-141.74,95.81,237.55,16.845,56.33188574622068,1078.125,1074.4140625,0.316226050366752,0.17267490629471582,0.45397549493337197,64.67391834532103,0.3305841235581475,67.65352910233139,0.00625,6,0.4435003833333333,0.0016487408841463073,-3.349684068382142e-07,35.03733333333333,0.013888444437331617,3.1944453109930522e-06,55.876333333333335,0.14925332678220496,0.4299999999999997,2.9340285736839344e-05
S102,12610.0,12639.984375,N1,-0.7983645833333334,62.08897884146117,-209.1,93.12,302.22,14.54,48.362673453703025,1046.875,1033.1624348958333,0.3142848335462948,0.6930575560815037,0.7563504295114946,64.60566058742293,0.2997833596225859,65.46754921333164,0.052083333333333336,34,0.4439807499999999,0.00147531435209585,-4.998347710055283e-07,35.04333333333333,0.011925695879997564,9.861113786108054e-06,55.985666666666674,0.17099090294190725,0.6199999999999974,0.00018170143817855842
S102,12640.0,12669.984375,N1,0.3743177083333335,62.75636725707847,-139.71,104.2,243.91000000000003,16.865000000000002,52.53196205081691,1093.75,1081.5185546875,0.41962362227953753,0.13274201561048157,0.33152995245527966,64.62757210994047,0.3963981682302773,65.13831437794502,0.0010416666666666667,1,0.44434369999999995,0.001447397737320327,5.065066478153851e-07,35.039333333333325,0.01590248058916767,-1.215278107442974e-05,57.06499999999999,0.26062425059844324,0.9500000000000028,0.00028052090942950087
S102,12670.0,12699.984375,N2,0.2774270833333332,63.61557033548679,-141.86,139.98,281.84000000000003,17.15,46.026248680617016,1046.875,1037.3860677083333,0.3946198504749715,0.19856254262406423,0.5270298062412283,64.65542300030542,0.37252738366054367,65.90902821313632,0.008333333333333333,8,0.44515499999999997,0.001425821990993271,-2.140560476497528e-07,35.03399999999999,0.013808210118137692,8.402780057177482e-06,56.89833333333333,0.06377477732005203,0.21999999999999886,1.906250517103563e-05
S102,12700.0,12729.984375,N2,-0.12836458333333323,63.752799566244505,-152.78,106.07,258.85,14.575,72.42748885724939,1093.75,1086.4176432291667,0.17468970506459605,0.16862135013758553,0.4269550112098723,64.76326025830647,0.18347310845272577,65.76473218982953,0.003125,3,0.44679894166666667,0.0017901879989535225,1.198737955386816e-06,35.05133333333333,0.015434449203720096,9.027780226719284e-06,56.247,0.40043434751113216,1.2999999999999972,-2.7256951838365994e-05
S102,12730.0,12759.984375,N2,0.552697916666667,63.4877965571304,-135.41,95.1,230.51,19.08,63.33697289750537,1046.875,1060.1155598958333,0.24214885444357015,0.21746647251166482,0.506879752341059,64.73827468987965,0.2469787663349894,66.85057965343307,0.00625,5,0.4477062916666667,0.0015080348824205647,7.435985090056648e-07,35.064,0.010519822558707979,1.8750005086267326e-06,57.30200000000001,0.18454267799075671,0.5600000000000023,-0.00020388894419730552
S102,12760.0,12789.984375,N2,-0.36500520833333294,63.408276783772266,-143.47,102.21,245.68,16.94,69.11358301492393,1109.375,1107.0475260416667,0.26833584043859826,0.19045985560538006,0.5246929905906882,64.74099256278068,0.2752398698879175,67.49074010558782,0.010416666666666666,8,0.4478877666666667,0.001541866999956717,3.8528135451425436e-07,35.06933333333333,0.010934146311239526,7.638890961071876e-07,56.53,0.29840688106454,1.25,-0.0004021528868687304
S102,12790.0,12819.984375,N2,-0.09374479166666673,63.29696115654857,-139.24,104.68,243.92000000000002,19.03,53.48811250649798,1093.75,1077.9134114583333,0.11162856937182343,0.33301417011893053,0.4838527650679377,64.68851804001369,0.15413885565040086,65.46754921333164,0.005208333333333333,4,0.44852821666666665,0.0014218203894030314,2.8969235288963114e-07,35.06066666666667,0.012364824660662284,-2.2222228250391653e-06,55.297000000000004,0.1648261710611105,0.5599999999999952,-0.0001506597630912988
S102,12820.0,12849.984375,N2,0.031401041666667004,59.6898881447687,-128.09,117.93,246.02,15.405000000000001,56.44060912403828,1062.5,1067.3746744791667,0.12059963032005251,0.3122220986555706,0.39790575901280384,64.66349452636543,0.14852263141382685,65.76473218982953,0.057291666666666664,43,0.44911524166666666,0.0016506950556045142,-3.1773250806545804e-07,35.053999999999995,0.012000000000000455,-8.19444666733113e-06,55.67666666666667,0.2492031745829544,0.730000000000004,0.00033215286788001
S102,12850.0,12879.984375,N1,0.10163541666666671,61.14117255830623,-149.51,138.52,288.03,13.45,64.48467471457201,1078.125,1065.0716145833333,0.31539630053139317,0.7204840194079408,0.5656700795418552,64.58823337313953,0.3318278723448395,66.75327707311455,0.05625,34,0.4498730083333334,0.001619852567858323,2.4121078591872694e-07,35.04333333333333,0.01299572579307749,-9.305558079849243e-06,55.77066666666666,0.12484479253145615,0.4399999999999977,-0.0001815278270203534
S102,12880.0,12909.984375,N2,-0.06240624999999985,55.758604182276606,-119.07,79.31,198.38,16.200000000000003,63.87591391496658,1109.375,1096.7447916666667,0.17310168314702584,0.18292746266545715,0.45984598871071314,64.41289388535307,0.17059107316249664,66.2872536767062,0.021875,18,0.45195415833333336,0.0016183757701052992,6.09517309439375e-07,35.031333333333336,0.014996295838934985,-7.36111310794046e-06,56.06166666666666,0.12835064818258238,0.45000000000000284,-5.5243070541198004e-05
S102,12910.0,12939.984375,N2,0.035640625,56.94856809004302,-126.33,90.62,216.95,14.695,54.138036644320565,1062.5,1067.8873697916667,0.36318033619294726,0.3254787472793816,0.37886320273799207,64.37727529863568,0.3704840846840039,68.7749954561976,0.030208333333333334,20,0.452861425,0.0016916120253695956,9.545599377604041e-07,35.019666666666666,0.018345450541089003,-1.8402782769852136e-06,55.57233333333333,0.06391052773648137,0.22999999999999687,1.2187503306072643e-05
S102,12940.0,12969.984375,N2,-0.1231093750000003,55.02948974629909,-119.6,78.13,197.73,16.325,67.59465725264845,1109.375,1107.7555338541667,0.159884805537195,0.3919712911114225,0.35768928312697446,64.36660560368873,0.19493518372045174,65.49045732013177,0.023958333333333335,19,0.45400357499999994,0.0014698587327954381,9.276688714379555e-07,35.017666666666656,0.016468825769380926,-1.1215280820117126e-05,55.090333333333334,0.2288446828940733,0.7899999999999991,-0.000291701468017977
S102,12970.0,12999.984375,N2,-0.2835989583333333,56.35243707126086,-136.39,113.1,249.48999999999998,14.370000000000001,57.117956548551525,1078.125,1075.8707682291667,0.4177265166449615,0.47514617633828105,0.9009808505487537,64.45264109089528,0.3896768852574283,67.66091929614909,0.12083333333333333,75,0.45626667499999995,0.0017225825145330512,1.5514893531600925e-06,35.00566666666667,0.015205992970609398,-8.368057825536877e-06,55.12466666666667,0.1951022523931716,0.6200000000000045,0.0001403472602938533
S102,13000.0,13029.984375,N2,0.5915000000000004,54.668761241376835,-129.97,80.79,210.76,15.935,63.16375918981667,1093.75,1074.9348958333333,0.35896111432468875,0.2011010275058009,0.5001030709735966,64.33362664446548,0.35663861800599894,65.90902821313632,0.15104166666666666,120,0.4575369833333333,0.001542479826898518,1.02691260495676e-06,34.999,0.011357816691600226,-4.513890113362255e-07,55.11966666666667,0.10712868689364102,0.29000000000000625,2.593750703599919e-05
S102,13030.0,13059.984375,N2,0.3240052083333335,52.53807166543981,-114.76,93.01,207.77,16.605,65.12609493989089,1062.5,1048.0143229166667,0.18483053424390922,0.18490977060147168,0.29754310787122373,64.27187288233254,0.1917625196706423,65.612498809297,0.052083333333333336,36,0.45938348333333323,0.0020704539638419523,2.3177801426269783e-06,35.001999999999995,0.009797958971132793,6.944446328246444e-06,55.958333333333336,0.31328457067372883,1.1700000000000017,0.0005092709714819271
S102,13060.0,13089.984375,N2,-0.5962031250000003,56.03469217266945,-123.79,84.08,207.87,13.34,60.917603268535494,1132.8125,1119.2626953125,0.23537057070831002,0.2365844927763065,0.3257936356891515,64.29276234427637,0.23953456757575844,65.46754921333164,0.058333333333333334,47,0.46156081666666654,0.00158842137557668,6.145878403287338e-07,34.995333333333335,0.004988876515697596,-3.0555563844276646e-06,56.109,0.15716975960194546,0.4899999999999949,-0.00014670142868419912
S102,13090.0,13119.984375,N2,-0.08315104166666651,58.51800978044868,-139.06,113.73,252.79000000000002,15.010000000000002,62.65327679097981,1093.75,1077.1077473958333,0.35354725246029306,0.22888002907272914,0.9760805755318337,64.2992808225784,0.3685363381444858,67.83067152844649,0.08854166666666667,37,0.4624039083333333,0.001556466789429585,5.370450675577999e-07,34.989000000000004,0.01220655561573428,-8.368057825536408e-06,55.28866666666667,0.36576616695491265,1.0,-0.0006151390557560375
S102,13120.0,13149.984375,N2,0.3366406250000001,49.31127237715717,-106.05,132.66,238.70999999999998,12.41,31.082798505789192,1093.75,1100.6917317708333,0.21559983750122713,0.2684510611307436,0.6592161801884282,64.57583335273333,0.2421193920702612,66.79820356865893,0.036458333333333336,18,0.46377024166666664,0.0017417372314054468,1.3738252424656235e-06,34.99266666666667,0.007717224601860007,-1.180555875801795e-06,55.215333333333334,0.2952257140261029,0.8599999999999994,0.0004145140013330084
S102,13150.0,13179.984375,N1,-0.7412968750000001,53.44125181113399,-134.61,114.96,249.57,14.535,64.92994266250214,1093.75,1078.4505208333333,0.37761673829647263,0.5093643489002303,0.8788012668781644,64.76204442627666,0.45471792974808123,71.53320907103218,0.008333333333333333,6,0.46612936666666666,0.0016236665653869744,1.4769908520482956e-06,34.99266666666667,0.010934146311237923,-1.013889163923893e-05,55.52400000000001,0.13939392621870875,0.5800000000000054,0.00019368060809478305
S102,13180.0,13209.984375,W,0.15419791666666724,74.81636570618532,-188.21,138.82,327.03,15.705,32.99561123932784,1093.75,1098.3723958333333,0.23258809561588106,0.5759917473849392,0.4693699603960848,64.70716797663795,0.26044022313681275,66.34756966159348,0.036458333333333336,31,0.4683708666666666,0.0018330112380694485,1.6590330021248416e-06,34.98800000000001,0.01194431524477944,-1.1180558588476768e-05,56.06966666666666,0.2882762949363382,0.9600000000000009,-0.0001557986533742017
S102,13210.0,13239.984375,N1,0.22166145833333353,90.42706895384427,-244.75,198.45,443.2,16.43,61.91291366778859,1109.375,1099.951171875,0.5077139327416572,0.8738180260834251,2.499968749804685,64.66901644305867,0.5047480765097586,67.54257916307313,0.06770833333333333,48,0.4698436583333333,0.0023283911415962508,-1.3877705587485247e-06,34.98133333333333,0.013840359661351581,6.111112768856588e-06,56.24066666666666,0.34477947863654673,1.25,-0.0005657640423622075
S102,13240.0,13269.984375,N2,0.6783593749999992,84.74507615100478,-193.68,132.28,325.96000000000004,20.935000000000002,59.653147098146526,1093.75,1089.5182291666667,0.47942022276912766,0.21668419400259803,0.4640446709070391,64.46482556715229,0.46189601639366984,66.01514977639603,0.33541666666666664,195,0.47149805,0.0019662956536340118,1.358115819801384e-06,34.98766666666668,0.01054619467970493,-2.4652784465277785e-06,56.43666666666668,0.6206090198793089,2.0800000000000054,0.0006026390523651948
S102,13270.0,13299.984375,N2,-0.42605208333333344,87.46296562591861,-184.6,123.02,307.62,19.96,57.78342309091538,1125.0,1113.7369791666667,0.45039406935297593,0.1289480677120315,0.3269555881113247,64.79904050576089,0.42935944470611687,65.39877674696982,0.00625,4,0.47314185000000003,0.001515549265942875,6.432801224175657e-07,34.981666666666676,0.012405196043953074,5.590279294238581e-06,55.881,0.09991162761827721,0.3299999999999983,1.1493058673247045e-05
S102,13300.0,13329.984375,N2,-0.1569687500000003,83.06107684621715,-190.79,145.99,336.78,21.485,46.99304974685292,1109.375,1097.2412109375,0.39059583224436306,0.3353843152100123,0.39483976180217717,64.86004787400371,0.3916075185848089,66.17401302626281,0.008333333333333333,7,0.4744014833333334,0.0019095368373130517,1.2604343696924781e-06,34.989000000000004,0.013000000000000584,-5.902779379011438e-07,54.15133333333333,0.7061432023479528,2.280000000000001,-0.0009501391466306279
S102,13330.0,13359.984375,N2,0.3527083333333333,84.63256902732499,-203.79,120.8,324.59,23.92,62.64326788188061,1140.625,1129.1585286458333,0.24206145913796356,0.49881695979086355,0.445580146176495,64.87357166694112,0.26597150396365565,65.58963332722634,0.011458333333333333,8,0.47536225,0.001359544128559272,-1.9126046854939019e-07,34.989000000000004,0.00830662386291859,-4.062501102023786e-06,53.70666666666667,0.19246356076468624,0.5499999999999972,-0.00029430563539106883
S102,13360.0,13389.984375,N2,0.005151041666666541,84.38872291106507,-179.08,116.75,295.83000000000004,26.494999999999997,48.09430614665168,1125.0,1103.6214192708333,0.2468464294297615,0.3896223242520319,0.5497750486941606,64.79177563202248,0.28280225657760577,66.4981202741852,0.023958333333333335,13,0.47686738333333334,0.0016202135259657093,7.475444736177547e-07,34.978,0.009797958971134243,-6.388890621987386e-06,53.84833333333333,0.16731374387326617,0.5200000000000031,0.00017760421484489347
S102,13390.0,13419.984375,N2,-0.6202291666666665,86.20100544143408,-195.75,135.76,331.51,23.045,43.26714375707506,1109.375,1102.4088541666667,0.3047938738812766,0.45575029712917714,0.516724417135371,64.77724380404683,0.2946356242492767,66.34756966159348,0.025,20,0.47839380000000004,0.0015789358948355133,1.2419269861998197e-06,34.97433333333334,0.011455226851626909,5.798612684086489e-06,53.793,0.12097244865395376,0.37000000000000455,0.00013559031455900444
S102,13420.0,13449.984375,N2,0.38741145833333296,84.1711536600022,-195.98,141.19,337.16999999999996,25.33,29.79795976342434,1125.0,1130.5257161458333,0.35197853469904794,0.4946315530411388,0.4208075487150338,64.78515705199207,0.3432211367650454,66.17401302626281,0.057291666666666664,34,0.48020817499999996,0.001658319418681151,1.0483850500176445e-06,34.98266666666667,0.010624918300340758,-4.027778870383204e-06,53.732,0.26141155291991197,0.75,-0.00032152786499779344
S102,13450.0,13479.984375,N2,0.6153645833333333,84.50543578098244,-180.36,121.81,302.17,24.455,46.53740999842278,1109.375,1117.1712239583333,0.22008274564480418,0.19249988726547929,0.14311453746329664,64.77147581358801,0.21331728274637524,65.06150935845248,0.03333333333333333,27,0.48113664999999994,0.0016671566295642312,1.2327255948148755e-06,34.97966666666667,0.01251221625274979,-5.3125014411088175e-06,53.749333333333325,0.07201543044530163,0.23999999999999488,-1.770833813702771e-05
S102,13480.0,13509.984375,N2,-0.3561041666666668,81.82131149855346,-381.26,173.96,555.22,22.955,74.45877436254837,1140.625,1089.6321614583333,0.2689921389805533,0.21928505991061042,0.3872086718496314,64.76826769598223,0.2554401330784569,66.01514977639603,0.034375,26,0.48253485,0.0015334332375968123,-3.925113911977508e-07,34.984,0.014742229591664172,1.0208336102521251e-05,53.64866666666667,0.17792757577796187,0.4799999999999969,0.00023798617566899347
S102,13510.0,13539.984375,N2,-0.5968697916666668,75.78671852120404,-177.03,121.57,298.6,19.665,68.44664752042706,1125.0,1125.8056640625,0.293592969257137,0.22055554462286567,0.5068958072178148,64.75917129347819,0.25154532120322254,66.01514977639603,0.03125,20,0.48320738333333335,0.0015636025719649959,9.849269164840839e-07,34.984,0.010198039027186792,-3.2638897742761892e-06,53.86599999999999,0.09844118379350537,0.28999999999999915,0.0001425000386556097
S102,13540.0,13569.984375,N2,0.38868750000000024,71.95107506831067,-152.35,107.9,260.25,21.0,52.18046096467367,1156.25,1137.5569661458333,0.24576270171764378,0.13274201561048155,0.47154720954887785,64.78809677427792,0.2529322046232168,67.29784543356496,0.016666666666666666,12,0.48504347500000006,0.0016698550733646577,1.0710890492320605e-06,34.98233333333334,0.010225241100120038,1.6319448871377994e-06,53.473,0.22214334711322473,0.9200000000000017,-0.00037357649022799733
S102,13570.0,13599.984375,N1,0.15737499999999985,77.23264628761946,-235.67,171.43,407.1,22.855,41.41640128850826,1093.75,1107.6578776041667,0.5494275745921587,0.9701714481929928,1.1068437475981976,64.75472450568815,0.28800322758174124,66.94027188471824,0.029166666666666667,21,0.487541125,0.0027303988370520195,3.410120499707174e-06,34.96233333333334,0.013085190950925677,-1.2118058842788072e-05,53.109,0.16063104722728155,0.44999999999999574,2.302083957813525e-05
S102,13600.0,13629.984375,N1,-0.45421354166666694,83.38598912715983,-481.9,314.62,796.52,18.18,52.28992877215208,1062.5,1054.0608723958333,3.8845977689316675,0.9512053756506356,1.8483848876000728,64.30890033823916,3.2412902194073476,111.66915420114903,0.011458333333333333,4,0.4962190666666667,0.002516550217173415,3.6825938809119685e-06,34.946,0.013063945294843919,-7.500002034505451e-06,64.977,6.675255875245532,18.21999999999999,0.011405801705132841
S102,13630.0,13659.984375,N2,0.5154531249999998,89.76392452800667,-189.68,128.76,318.44,24.04,48.40974662098063,1125.0,1117.6839192708333,0.2914805954090255,0.07198059875565235,0.1359125535858341,64.29131582564831,0.275077698253997,65.28399497579785,0.09375,88,0.5020041749999999,0.0023973203188230054,3.075975443786729e-06,34.91999999999998,0.013416407865000838,-1.0069447175958382e-05,71.20866666666666,0.1990432672114835,0.5799999999999983,-0.00020993061250288017
S102,13660.0,13689.984375,N2,-0.503583333333333,93.10245496826631,-188.07,136.84,324.90999999999997,25.47,47.77664998606137,1062.5,1068.4651692708333,0.3247177593909654,0.14282613750835507,0.25060473733551003,64.31616253579828,0.3061644472785301,65.28399497579785,0.11979166666666667,106,0.5065728916666666,0.0018940248801420883,2.5146059338666374e-06,34.91199999999999,0.010770329614269242,-3.5416676274060264e-06,60.272333333333336,6.195780114095578,16.78,-0.010526634799976882
S102,13690.0,13719.984375,N2,0.7374843749999996,95.41965802593413,-202.03,145.3,347.33000000000004,28.615000000000002,38.28778805769837,1093.75,1083.9436848958333,0.3524083189481896,0.19202864369671518,0.39263510590481954,64.3172629624768,0.3340060113400724,66.07571414672717,0.11875,96,0.5106394166666667,0.00208426995445781,2.2876603427898185e-06,34.923333333333325,0.01192569588000008,9.722224859545357e-06,55.105333333333334,0.21537151364302726,0.6000000000000014,0.00036937510019940733
S102,13720.0,13749.984375,N2,-1.1846041666666665,88.19775160263431,-196.19,229.77,425.96000000000004,20.11,34.70088631710034,1109.375,1098.7060546875,0.2318404623873926,0.2785732966334394,0.2709855341567557,64.27591255310715,0.22772161072848135,65.612498809297,0.10729166666666666,55,0.5126781000000001,0.001990245535103641,8.257554323338223e-07,34.93266666666667,0.013399834161495861,1.0972225198630042e-05,55.20633333333333,0.3251100668320733,0.8699999999999974,-0.0005189237518781867
S102,13750.0,13779.984375,N1,0.16150520833333293,80.03356362707419,-247.16,169.72,416.88,17.905,38.4966028374348,1156.25,1168.115234375,0.738229394489876,1.2890497684556463,0.652910650631718,64.46731629855066,0.6068395691003037,71.05631569396206,0.06354166666666666,45,0.5146529750000001,0.0036696474387023855,5.7391215655169205e-06,34.92999999999999,0.01154700538379432,-1.4027781583059262e-05,55.02200000000001,0.14388421270822813,0.4299999999999997,0.00018805560656890333
S102,13780.0,13809.984375,W,-0.06061458333333387,97.08212322960453,-283.77,215.76,499.53,15.594999999999999,41.48286892155987,1093.75,1106.6162109375,0.6455972350704079,1.2101956733141686,1.1106721680723595,64.46814427777211,0.5410622703148092,68.70953354520753,0.06666666666666667,39,0.5189543249999999,0.002302166168931983,7.44336356428042e-07,34.91599999999999,0.014742229591665037,-1.2847225707255443e-05,54.730000000000004,0.1178982612255159,0.45000000000000284,-1.291667017053696e-05
S102,13810.0,13839.984375,W,-0.23142708333333353,121.19333082390548,-564.8,515.93,1080.73,4.385,33.519064512620105,1046.875,1046.142578125,5.29362240351932,8.06264528023716,9.623328622469549,64.38190463934785,3.693820967948287,108.83014288330233,0.04479166666666667,22,0.5165422333333333,0.019572363479207665,-1.921629861553238e-05,34.937999999999995,0.019731531449266346,2.70833406801617e-05,57.86666666666667,2.0846060112698086,6.340000000000003,0.0037461815717723442
S102,13840.0,13869.984375,W,0.48005729166666633,66.99911739815782,-153.68,115.44,269.12,13.685,52.20901012971424,1156.25,1163.3870442708333,0.23290278357551294,0.07198059875565238,0.49914858064063006,64.41168317049274,0.29166958028633827,65.49045732013177,0.05625,47,0.5099776333333335,0.0015179761961975039,1.0447845716104113e-06,34.95666666666667,0.013984117975601158,-1.0416669492368272e-05,61.02633333333333,0.3344994602221189,1.2899999999999991,-0.0005534376501295713
S102,13870.0,13899.984375,W,0.5967135416666671,82.68086894727386,-192.21,144.41,336.62,17.29,40.8677081008066,1125.0,1126.4811197916667,0.14627537173085559,0.0,0.3524329501834356,64.57846593689287,0.18503307155463386,65.49045732013177,0.026041666666666668,23,0.5116106250000001,0.0016551440524543567,5.870646123764748e-07,34.93866666666666,0.013349989596335389,-8.680557910308775e-06,56.283,2.4395151840751748,7.420000000000002,-0.004389688690779267
S102,13900.0,13929.984375,N1,-0.6104531249999999,80.01298238705867,-226.47,159.62,386.09000000000003,11.41,29.596946879318985,1125.0,1136.767578125,0.3017580864009005,0.47580341412067323,0.4882728471499197,64.64636869141441,0.2604771526411988,65.83312236253116,0.18125,103,0.513713525,0.0015539735034340151,9.493524710700061e-07,34.923333333333325,0.012995725793080651,-1.347222587679949e-05,52.429333333333325,0.16362423075109908,0.5799999999999983,0.0002438195105847202
S102,13930.0,13959.984375,N1,0.1881718750000002,84.22237103311215,-192.39,242.08,434.47,10.350000000000001,28.268626318785724,1109.375,1117.8548177083333,0.5006766255112508,0.11599041357658256,0.5334472534583173,64.73580502336873,0.37849215278686693,66.30987860040162,0.009375,5,0.51574175,0.0014491828516443503,1.0688674774488859e-06,34.90133333333332,0.013349989596332823,-1.0486113955651385e-05,53.34166666666667,0.4061861915701008,1.3100000000000023,0.0006696876816644112
S102,13960.0,13989.984375,N1,0.08556770833333378,83.94469696864046,-247.13,199.38,446.51,16.295,24.627775548985557,1093.75,1113.18359375,1.0025309767658055,0.4733971036121084,1.845460600064084,64.490035607797,0.43528608034559707,68.0,0.21875,103,0.5177269666666666,0.002008086962481665,1.5872339375091877e-06,34.876,0.018366636418607092,-1.54861153119886e-05,54.35666666666667,0.1972364627096681,0.6000000000000014,0.0003020834152787044
S102,13990.0,14019.984375,N1,0.24572395833333355,76.49130281509713,-194.51,214.09,408.6,9.735,29.3314310363736,1125.0,1105.2001953125,0.4118352703819278,0.49137416263814004,0.7046711395612534,64.6843137079316,0.34000264787161144,65.83312236253116,0.04375,39,0.520875475,0.001440232602524693,1.0724683898840228e-06,34.86033333333334,0.01622412469818158,-1.0520836187291447e-05,55.636333333333326,0.45065495546913614,1.3699999999999974,0.0006062154422242418
S102,14020.0,14049.984375,N1,0.09743229166666699,74.1932757195733,-165.25,134.51,299.76,13.91,62.60770206973492,1125.0,1111.2630208333333,0.32977264895682296,0.07880950133074056,0.2628944622160932,64.85478966851959,0.27196577986324716,65.83312236253116,0.004166666666666667,4,0.5243448166666667,0.0017025903156824018,1.232923945563118e-06,34.83533333333333,0.012036980056845264,-9.79166932282704e-06,56.60199999999999,0.14098226838861724,0.5600000000000023,8.74305792726192e-05
S102,14050.0,14079.984375,N2,-0.6512500000000002,74.74983087634156,-183.44,152.72,336.15999999999997,11.655000000000001,36.55889900928692,1109.375,1098.779296875,0.3956743101620602,0.16455695991223088,0.37895913505504353,64.87176807885788,0.2860617466106295,65.83312236253116,0.009375,6,0.5256364916666666,0.0015186840904537072,5.226123379482255e-07,34.82366666666667,0.011967548714010083,9.37500254313577e-07,56.06766666666667,0.5170601727286889,1.519999999999996,0.00016732643427908795
S102,14080.0,14109.984375,N2,-0.7160416666666666,73.65146162245027,-200.71,147.85,348.56,14.59,58.53769743689197,1140.625,1122.5911458333333,0.29292696461272083,0.0,0.14786897705401225,64.86950906874839,0.25191237809089745,65.43699259593154,0.0010416666666666667,1,0.5283688583333332,0.0017388066228299294,1.253992310653294e-06,34.814,0.014966629547095066,-5.555557062596198e-06,55.339666666666666,0.3181559715331807,1.1700000000000017,-0.000556840428830411
S102,14110.0,14139.984375,N1,1.240791666666667,83.06105521002264,-215.55,180.73,396.28,12.815000000000001,32.1633434901467,1093.75,1100.3011067708333,0.6779569684291672,0.5124227160563392,0.9725346100310945,64.77267179742029,0.3564125283160433,65.81033353509159,0.028125,24,0.5302578583333334,0.0015106888621631898,3.3169909171525196e-07,34.811666666666675,0.015073892072793181,-5.659723757520904e-06,54.80866666666667,0.5241547693403374,1.5,-0.0007180557503406444
S102,14140.0,14169.984375,N2,-0.05650520833333263,69.60004692530876,-225.3,130.61,355.91,16.405,61.540865036089556,1093.75,1106.5755208333333,0.32489314482696546,0.21668419400259806,0.5216150383797317,64.81155254314008,0.31647582497212134,65.89385403814228,0.008333333333333333,5,0.5312826,0.0016258752381409997,1.093326685472752e-06,34.81000000000001,0.01154700538379227,-6.111112768857328e-06,55.208,0.25927334353278003,1.0600000000000023,0.00032680564420726
S102,14170.0,14199.984375,N2,-0.37949479166666694,67.10061627033949,-156.36,118.42,274.78000000000003,12.97,26.442731477472957,1125.0,1125.7242838541667,0.5753584329693003,0.12011279421166313,0.937957642929869,64.72135356272643,0.3785076070004185,65.39877674696982,0.040625,34,0.5339619666666666,0.001664660570673639,1.0313158179567524e-06,34.78866666666668,0.008844332774280449,-1.8055560453446556e-06,55.53933333333334,0.10353528652375268,0.3500000000000014,-7.000001898872178e-05
S102,14200.0,14229.984375,N1,-0.2168697916666673,75.83480019673605,-169.55,179.5,349.05,13.21,45.607870593686656,1125.0,1113.0045572916667,0.5273755777432246,0.12908263395549724,0.51478150704935,64.661426477126,0.4256476749951343,66.6783323126786,0.06666666666666667,59,0.5354243666666666,0.0016805956232505313,1.2366539812971849e-06,34.787333333333336,0.013399834161494116,5.277779209466138e-06,55.36066666666666,0.20079729967197127,0.6000000000000014,0.00011340280854025704
S102,14230.0,14259.984375,N1,0.5073124999999999,65.47122065955655,-171.66,142.26,313.91999999999996,12.435,21.971082842971683,1140.625,1147.119140625,0.4940224283595049,0.11580316603568698,0.3987774285237318,64.63866122673635,0.4217224385918475,65.39877674696982,0.05520833333333333,49,0.5371534416666667,0.00153319865964283,7.190151690036806e-07,34.778000000000006,0.01326649916142046,-6.388890621985487e-06,54.736,0.3186492324380111,1.1000000000000014,-0.0005268751429240302
S102,14260.0,14289.984375,N2,-0.47660937499999995,68.83263242969556,-185.06,153.7,338.76,10.280000000000001,39.061278430063915,1156.25,1150.1383463541667,0.5072296334419616,0.10691682092740237,0.5395752895153331,64.57742856337414,0.41267841674043715,65.89385403814228,0.078125,68,0.5393840166666666,0.0017295626710401473,1.0112038333343658e-06,34.776,0.014742229591663271,-2.2916672883200823e-06,53.370333333333335,0.19688377846390112,0.7600000000000051,-0.00032885425587409405
S102,14290.0,14319.984375,N1,0.27821354166666673,67.53479691122064,-180.75,136.52,317.27,16.43,57.61993689002817,1109.375,1093.7174479166667,0.5341373740668218,0.15478129171152724,0.5577334697361177,64.6270972429009,0.42299758466209,65.83312236253116,0.078125,69,0.5407503166666667,0.0017020814168899818,3.747006224773838e-07,34.76066666666666,0.01236482466066175,-5.694445989161536e-06,53.190333333333335,0.24972629461516924,0.7000000000000028,0.00036996537813730964
S102,14320.0,14349.984375,N2,-0.5537083333333335,78.39700611310526,-308.65,173.99,482.64,11.28,41.766421591640224,1125.0,1142.2281901041667,1.7047714391443278,0.2579276889136437,1.955620627813727,64.75771576137859,0.5815920980374475,71.95832127002409,0.013541666666666667,10,0.54218075,0.0014937373053854055,3.3804175836637097e-07,34.75533333333333,0.012578641509410772,-6.2500016954224435e-06,54.24166666666666,0.44235794957879515,1.5300000000000011,0.0007086460255658708
S102,14350.0,14379.984375,N2,0.5145468750000003,86.95787340241066,-260.85,315.93,576.78,16.745,27.74113198175012,1109.375,1126.7415364583333,0.8567947375084783,0.516220195198285,1.3543765862934876,64.60543229863063,0.3813255482130497,67.43144666993287,0.159375,117,0.5436645749999999,0.0015861986774597411,1.3463291412568264e-06,34.75,0.01154700538379432,-4.027778870383352e-06,54.92400000000001,0.17867288546391108,0.5200000000000031,-0.00021534728063891026
S102,14380.0,14409.984375,N2,-0.1447343749999997,99.33322892191939,-277.66,643.66,921.3199999999999,12.735,73.79091279233333,1078.125,1092.1956380208333,1.0726106966636226,0.270022825681254,1.2972660889561383,64.61294668493318,0.40238334539070736,69.41901756723442,0.04583333333333333,37,0.5461303416666666,0.0017987169570550035,1.9362424957254954e-06,34.751333333333335,0.013597385369582883,4.1666677969482875e-07,54.574333333333335,0.3494537006369925,0.9299999999999997,5.3368070032571154e-05
S102,14410.0,14439.984375,N1,1.5365260416666666,85.77364872250216,-274.94,246.2,521.14,22.15,32.28870911539044,1125.0,1146.728515625,0.7716767626679364,0.2734727159862367,0.9644275207128492,64.39962832792415,0.34814445071627825,66.25707509390978,0.15208333333333332,86,0.5481047916666668,0.001631699859532151,7.889257782459343e-07,34.76,0.013416407865000307,-1.0416669492373939e-06,54.998666666666665,0.2093439487754277,0.7700000000000031,7.791668780292093e-05
